          Evm          Svm            E11          E22          E33          E23          E13          E12         SDEV11       SDEV22       SDEV33       SDEV23       SDEV13       SDEV12      TEMP
  0.00000E+00  0.46184E+03    0.00000E+00  0.00000E+00  0.00000E+00  0.00000E+00  0.00000E+00  0.00000E+00   -0.57307E+02 -0.17500E+03  0.23231E+03  0.13963E+03  0.54622E+02 -0.68402E+02      298.00
  0.37726E-03  0.47123E+03   -0.25000E-03 -0.25000E-03  0.50000E-03  0.00000E+00  0.00000E+00  0.00000E+00   -0.60773E+02 -0.17747E+03  0.23824E+03  0.14242E+03  0.54889E+02 -0.68934E+02      298.00
  0.75644E-03  0.48036E+03   -0.50000E-03 -0.50000E-03  0.10000E-02  0.00000E+00  0.00000E+00  0.00000E+00   -0.63817E+02 -0.18008E+03  0.24389E+03  0.14504E+03  0.55270E+02 -0.69501E+02      298.00
  0.11372E-02  0.48925E+03   -0.75000E-03 -0.75000E-03  0.15000E-02  0.00000E+00  0.00000E+00  0.00000E+00   -0.66637E+02 -0.18267E+03  0.24931E+03  0.14758E+03  0.55655E+02 -0.70214E+02      298.00
  0.15194E-02  0.49814E+03   -0.10000E-02 -0.10000E-02  0.20000E-02  0.00000E+00  0.00000E+00  0.00000E+00   -0.69172E+02 -0.18544E+03  0.25461E+03  0.15009E+03  0.56146E+02 -0.70968E+02      298.00
  0.19028E-02  0.50672E+03   -0.12500E-02 -0.12500E-02  0.25000E-02  0.00000E+00  0.00000E+00  0.00000E+00   -0.71504E+02 -0.18817E+03  0.25967E+03  0.15248E+03  0.56636E+02 -0.71806E+02      298.00
  0.22871E-02  0.51513E+03   -0.15000E-02 -0.15000E-02  0.30000E-02  0.00000E+00  0.00000E+00  0.00000E+00   -0.73643E+02 -0.19093E+03  0.26458E+03  0.15480E+03  0.57153E+02 -0.72697E+02      298.00
  0.26723E-02  0.52349E+03   -0.17500E-02 -0.17500E-02  0.35000E-02  0.00000E+00  0.00000E+00  0.00000E+00   -0.75671E+02 -0.19371E+03  0.26938E+03  0.15711E+03  0.57675E+02 -0.73675E+02      298.00
  0.30582E-02  0.53181E+03   -0.20000E-02 -0.20000E-02  0.40000E-02  0.00000E+00  0.00000E+00  0.00000E+00   -0.77503E+02 -0.19660E+03  0.27411E+03  0.15940E+03  0.58276E+02 -0.74650E+02      298.00
  0.34448E-02  0.53991E+03   -0.22500E-02 -0.22500E-02  0.45000E-02  0.00000E+00  0.00000E+00  0.00000E+00   -0.79202E+02 -0.19948E+03  0.27868E+03  0.16159E+03  0.58875E+02 -0.75658E+02      298.00
  0.38319E-02  0.54778E+03   -0.25000E-02 -0.25000E-02  0.50000E-02  0.00000E+00  0.00000E+00  0.00000E+00   -0.80735E+02 -0.20237E+03  0.28310E+03  0.16370E+03  0.59504E+02 -0.76641E+02      298.00
  0.42195E-02  0.55563E+03   -0.27500E-02 -0.27500E-02  0.55000E-02  0.00000E+00  0.00000E+00  0.00000E+00   -0.82199E+02 -0.20528E+03  0.28748E+03  0.16579E+03  0.60136E+02 -0.77677E+02      298.00
  0.46076E-02  0.56336E+03   -0.30000E-02 -0.30000E-02  0.60000E-02  0.00000E+00  0.00000E+00  0.00000E+00   -0.83539E+02 -0.20822E+03  0.29176E+03  0.16784E+03  0.60799E+02 -0.78702E+02      298.00
  0.49960E-02  0.57154E+03   -0.32500E-02 -0.32500E-02  0.65000E-02  0.00000E+00  0.00000E+00  0.00000E+00   -0.84885E+02 -0.21134E+03  0.29622E+03  0.17004E+03  0.61549E+02 -0.79840E+02      298.00
  0.53847E-02  0.57897E+03   -0.35000E-02 -0.35000E-02  0.70000E-02  0.00000E+00  0.00000E+00  0.00000E+00   -0.86125E+02 -0.21419E+03  0.30032E+03  0.17200E+03  0.62148E+02 -0.80933E+02      298.00
  0.57738E-02  0.58641E+03   -0.37500E-02 -0.37500E-02  0.75000E-02  0.00000E+00  0.00000E+00  0.00000E+00   -0.87278E+02 -0.21710E+03  0.30438E+03  0.17394E+03  0.62816E+02 -0.82000E+02      298.00
  0.61631E-02  0.59367E+03   -0.40000E-02 -0.40000E-02  0.80000E-02  0.00000E+00  0.00000E+00  0.00000E+00   -0.88353E+02 -0.22000E+03  0.30835E+03  0.17581E+03  0.63471E+02 -0.83061E+02      298.00
  0.65526E-02  0.60079E+03   -0.42500E-02 -0.42500E-02  0.85000E-02  0.00000E+00  0.00000E+00  0.00000E+00   -0.89439E+02 -0.22280E+03  0.31224E+03  0.17765E+03  0.64055E+02 -0.84183E+02      298.00
  0.69424E-02  0.60693E+03   -0.45000E-02 -0.45000E-02  0.90000E-02  0.00000E+00  0.00000E+00  0.00000E+00   -0.90172E+02 -0.22550E+03  0.31567E+03  0.17909E+03  0.64646E+02 -0.84983E+02      298.00
  0.73325E-02  0.61487E+03   -0.47500E-02 -0.47500E-02  0.95000E-02  0.00000E+00  0.00000E+00  0.00000E+00   -0.91341E+02 -0.22856E+03  0.31990E+03  0.18123E+03  0.65379E+02 -0.86282E+02      298.00
  0.77227E-02  0.62079E+03   -0.50000E-02 -0.50000E-02  0.10000E-01  0.00000E+00  0.00000E+00  0.00000E+00   -0.92088E+02 -0.23111E+03  0.32320E+03  0.18262E+03  0.65880E+02 -0.87169E+02      298.00
  0.81131E-02  0.62849E+03   -0.52500E-02 -0.52500E-02  0.10500E-01  0.00000E+00  0.00000E+00  0.00000E+00   -0.93144E+02 -0.23415E+03  0.32730E+03  0.18465E+03  0.66612E+02 -0.88426E+02      298.00
  0.85037E-02  0.63515E+03   -0.55000E-02 -0.55000E-02  0.11000E-01  0.00000E+00  0.00000E+00  0.00000E+00   -0.94000E+02 -0.23691E+03  0.33092E+03  0.18631E+03  0.67216E+02 -0.89476E+02      298.00
  0.88945E-02  0.64085E+03   -0.57500E-02 -0.57500E-02  0.11500E-01  0.00000E+00  0.00000E+00  0.00000E+00   -0.94695E+02 -0.23939E+03  0.33409E+03  0.18762E+03  0.67682E+02 -0.90376E+02      298.00
  0.92855E-02  0.64818E+03   -0.60000E-02 -0.60000E-02  0.12000E-01  0.00000E+00  0.00000E+00  0.00000E+00   -0.95658E+02 -0.24234E+03  0.33800E+03  0.18953E+03  0.68362E+02 -0.91606E+02      298.00
  0.96765E-02  0.65456E+03   -0.62500E-02 -0.62500E-02  0.12500E-01  0.00000E+00  0.00000E+00  0.00000E+00   -0.96420E+02 -0.24505E+03  0.34147E+03  0.19108E+03  0.68956E+02 -0.92618E+02      298.00
  0.10068E-01  0.66092E+03   -0.65000E-02 -0.65000E-02  0.13000E-01  0.00000E+00  0.00000E+00  0.00000E+00   -0.97135E+02 -0.24779E+03  0.34493E+03  0.19261E+03  0.69580E+02 -0.93603E+02      298.00
  0.10459E-01  0.66708E+03   -0.67500E-02 -0.67500E-02  0.13500E-01  0.00000E+00  0.00000E+00  0.00000E+00   -0.97974E+02 -0.25031E+03  0.34828E+03  0.19411E+03  0.70045E+02 -0.94707E+02      298.00
  0.10851E-01  0.67321E+03   -0.70000E-02 -0.70000E-02  0.14000E-01  0.00000E+00  0.00000E+00  0.00000E+00   -0.98676E+02 -0.25295E+03  0.35163E+03  0.19556E+03  0.70607E+02 -0.95697E+02      298.00
  0.11243E-01  0.67846E+03   -0.72500E-02 -0.72500E-02  0.14500E-01  0.00000E+00  0.00000E+00  0.00000E+00   -0.99290E+02 -0.25527E+03  0.35456E+03  0.19673E+03  0.71024E+02 -0.96541E+02      298.00
  0.11634E-01  0.68442E+03   -0.75000E-02 -0.75000E-02  0.15000E-01  0.00000E+00  0.00000E+00  0.00000E+00   -0.99917E+02 -0.25791E+03  0.35782E+03  0.19811E+03  0.71602E+02 -0.97470E+02      298.00
  0.12027E-01  0.69116E+03   -0.77500E-02 -0.77500E-02  0.15500E-01  0.00000E+00  0.00000E+00  0.00000E+00   -0.10066E+03 -0.26079E+03  0.36145E+03  0.19975E+03  0.72281E+02 -0.98567E+02      298.00
  0.12419E-01  0.69614E+03   -0.80000E-02 -0.80000E-02  0.16000E-01  0.00000E+00  0.00000E+00  0.00000E+00   -0.10137E+03 -0.26287E+03  0.36424E+03  0.20087E+03  0.72557E+02 -0.99499E+02      298.00
  0.12811E-01  0.70183E+03   -0.82500E-02 -0.82500E-02  0.16500E-01  0.00000E+00  0.00000E+00  0.00000E+00   -0.10197E+03 -0.26540E+03  0.36738E+03  0.20215E+03  0.73083E+02 -0.10041E+03      298.00
  0.13204E-01  0.70747E+03   -0.85000E-02 -0.85000E-02  0.17000E-01  0.00000E+00  0.00000E+00  0.00000E+00   -0.10256E+03 -0.26792E+03  0.37048E+03  0.20341E+03  0.73611E+02 -0.10130E+03      298.00
  0.13597E-01  0.71386E+03   -0.87500E-02 -0.87500E-02  0.17500E-01  0.00000E+00  0.00000E+00  0.00000E+00   -0.10326E+03 -0.27069E+03  0.37394E+03  0.20492E+03  0.74236E+02 -0.10235E+03      298.00
  0.13989E-01  0.71855E+03   -0.90000E-02 -0.90000E-02  0.18000E-01  0.00000E+00  0.00000E+00  0.00000E+00   -0.10392E+03 -0.27268E+03  0.37660E+03  0.20593E+03  0.74480E+02 -0.10323E+03      298.00
  0.14383E-01  0.72393E+03   -0.92500E-02 -0.92500E-02  0.18500E-01  0.00000E+00  0.00000E+00  0.00000E+00   -0.10450E+03 -0.27509E+03  0.37959E+03  0.20711E+03  0.74955E+02 -0.10410E+03      298.00
  0.14776E-01  0.73008E+03   -0.95000E-02 -0.95000E-02  0.19000E-01  0.00000E+00  0.00000E+00  0.00000E+00   -0.10526E+03 -0.27767E+03  0.38293E+03  0.20856E+03  0.75473E+02 -0.10521E+03      298.00
  0.15169E-01  0.73522E+03   -0.97500E-02 -0.97500E-02  0.19500E-01  0.00000E+00  0.00000E+00  0.00000E+00   -0.10580E+03 -0.28001E+03  0.38581E+03  0.20964E+03  0.75915E+02 -0.10603E+03      298.00
  0.15563E-01  0.73971E+03   -0.10000E-01 -0.10000E-01  0.20000E-01  0.00000E+00  0.00000E+00  0.00000E+00   -0.10634E+03 -0.28205E+03  0.38838E+03  0.21055E+03  0.76214E+02 -0.10679E+03      298.00
  0.15957E-01  0.74482E+03   -0.10250E-01 -0.10250E-01  0.20500E-01  0.00000E+00  0.00000E+00  0.00000E+00   -0.10688E+03 -0.28436E+03  0.39124E+03  0.21162E+03  0.76647E+02 -0.10762E+03      298.00
  0.16351E-01  0.75064E+03   -0.10500E-01 -0.10500E-01  0.21000E-01  0.00000E+00  0.00000E+00  0.00000E+00   -0.10760E+03 -0.28683E+03  0.39444E+03  0.21295E+03  0.77121E+02 -0.10867E+03      298.00
  0.16745E-01  0.75486E+03   -0.10750E-01 -0.10750E-01  0.21500E-01  0.00000E+00  0.00000E+00  0.00000E+00   -0.10814E+03 -0.28874E+03  0.39688E+03  0.21377E+03  0.77354E+02 -0.10941E+03      298.00
  0.17139E-01  0.75974E+03   -0.11000E-01 -0.11000E-01  0.22000E-01  0.00000E+00  0.00000E+00  0.00000E+00   -0.10868E+03 -0.29095E+03  0.39963E+03  0.21476E+03  0.77743E+02 -0.11021E+03      298.00
  0.17533E-01  0.76456E+03   -0.11250E-01 -0.11250E-01  0.22500E-01  0.00000E+00  0.00000E+00  0.00000E+00   -0.10921E+03 -0.29316E+03  0.40237E+03  0.21574E+03  0.78129E+02 -0.11100E+03      298.00
  0.17928E-01  0.77008E+03   -0.11500E-01 -0.11500E-01  0.23000E-01  0.00000E+00  0.00000E+00  0.00000E+00   -0.10996E+03 -0.29546E+03  0.40542E+03  0.21698E+03  0.78512E+02 -0.11205E+03      298.00
  0.18323E-01  0.77406E+03   -0.11750E-01 -0.11750E-01  0.23500E-01  0.00000E+00  0.00000E+00  0.00000E+00   -0.11042E+03 -0.29733E+03  0.40775E+03  0.21769E+03  0.78749E+02 -0.11271E+03      298.00
  0.18718E-01  0.77866E+03   -0.12000E-01 -0.12000E-01  0.24000E-01  0.00000E+00  0.00000E+00  0.00000E+00   -0.11094E+03 -0.29944E+03  0.41038E+03  0.21859E+03  0.79092E+02 -0.11347E+03      298.00
  0.19113E-01  0.78323E+03   -0.12250E-01 -0.12250E-01  0.24500E-01  0.00000E+00  0.00000E+00  0.00000E+00   -0.11146E+03 -0.30154E+03  0.41299E+03  0.21947E+03  0.79430E+02 -0.11422E+03      298.00
  0.19509E-01  0.78772E+03   -0.12500E-01 -0.12500E-01  0.25000E-01  0.00000E+00  0.00000E+00  0.00000E+00   -0.11197E+03 -0.30361E+03  0.41558E+03  0.22033E+03  0.79758E+02 -0.11497E+03      298.00
          Evm          Svm            E11          E22          E33          E23          E13          E12         SDEV11       SDEV22       SDEV33       SDEV23       SDEV13       SDEV12      TEMP
  0.19509E-01  0.78808E+03   -0.12500E-01 -0.12500E-01  0.25000E-01  0.00000E+00  0.00000E+00  0.00000E+00   -0.11187E+03 -0.30388E+03  0.41575E+03  0.22040E+03  0.79909E+02 -0.11493E+03      298.00
  0.19904E-01  0.79217E+03   -0.12750E-01 -0.12750E-01  0.25500E-01  0.00000E+00  0.00000E+00  0.00000E+00   -0.11249E+03 -0.30564E+03  0.41813E+03  0.22118E+03  0.80062E+02 -0.11572E+03      298.00
  0.20300E-01  0.79724E+03   -0.13000E-01 -0.13000E-01  0.26000E-01  0.00000E+00  0.00000E+00  0.00000E+00   -0.11324E+03 -0.30775E+03  0.42099E+03  0.22227E+03  0.80351E+02 -0.11673E+03      298.00
  0.20696E-01  0.80089E+03   -0.13250E-01 -0.13250E-01  0.26500E-01  0.00000E+00  0.00000E+00  0.00000E+00   -0.11364E+03 -0.30952E+03  0.42316E+03  0.22285E+03  0.80559E+02 -0.11730E+03      298.00
  0.21093E-01  0.80511E+03   -0.13500E-01 -0.13500E-01  0.27000E-01  0.00000E+00  0.00000E+00  0.00000E+00   -0.11414E+03 -0.31149E+03  0.42562E+03  0.22362E+03  0.80840E+02 -0.11801E+03      298.00
  0.21489E-01  0.80930E+03   -0.13750E-01 -0.13750E-01  0.27500E-01  0.00000E+00  0.00000E+00  0.00000E+00   -0.11463E+03 -0.31343E+03  0.42806E+03  0.22437E+03  0.81113E+02 -0.11871E+03      298.00
  0.21886E-01  0.81343E+03   -0.14000E-01 -0.14000E-01  0.28000E-01  0.00000E+00  0.00000E+00  0.00000E+00   -0.11512E+03 -0.31536E+03  0.43048E+03  0.22511E+03  0.81377E+02 -0.11940E+03      298.00
  0.22283E-01  0.81751E+03   -0.14250E-01 -0.14250E-01  0.28500E-01  0.00000E+00  0.00000E+00  0.00000E+00   -0.11561E+03 -0.31726E+03  0.43287E+03  0.22582E+03  0.81631E+02 -0.12008E+03      298.00
  0.22680E-01  0.82217E+03   -0.14500E-01 -0.14500E-01  0.29000E-01  0.00000E+00  0.00000E+00  0.00000E+00   -0.11629E+03 -0.31925E+03  0.43553E+03  0.22675E+03  0.81876E+02 -0.12099E+03      298.00
  0.23077E-01  0.82551E+03   -0.14750E-01 -0.14750E-01  0.29500E-01  0.00000E+00  0.00000E+00  0.00000E+00   -0.11668E+03 -0.32090E+03  0.43757E+03  0.22723E+03  0.82036E+02 -0.12152E+03      298.00
  0.23475E-01  0.82939E+03   -0.15000E-01 -0.15000E-01  0.30000E-01  0.00000E+00  0.00000E+00  0.00000E+00   -0.11715E+03 -0.32272E+03  0.43987E+03  0.22787E+03  0.82258E+02 -0.12217E+03      298.00
  0.23872E-01  0.83324E+03   -0.15250E-01 -0.15250E-01  0.30500E-01  0.00000E+00  0.00000E+00  0.00000E+00   -0.11763E+03 -0.32453E+03  0.44216E+03  0.22851E+03  0.82473E+02 -0.12282E+03      298.00
  0.24270E-01  0.83766E+03   -0.15500E-01 -0.15500E-01  0.31000E-01  0.00000E+00  0.00000E+00  0.00000E+00   -0.11832E+03 -0.32639E+03  0.44471E+03  0.22936E+03  0.82650E+02 -0.12372E+03      298.00
  0.24669E-01  0.84080E+03   -0.15750E-01 -0.15750E-01  0.31500E-01  0.00000E+00  0.00000E+00  0.00000E+00   -0.11866E+03 -0.32800E+03  0.44666E+03  0.22976E+03  0.82807E+02 -0.12418E+03      298.00
  0.25067E-01  0.84447E+03   -0.16000E-01 -0.16000E-01  0.32000E-01  0.00000E+00  0.00000E+00  0.00000E+00   -0.11912E+03 -0.32974E+03  0.44886E+03  0.23033E+03  0.82995E+02 -0.12480E+03      298.00
  0.25466E-01  0.84810E+03   -0.16250E-01 -0.16250E-01  0.32500E-01  0.00000E+00  0.00000E+00  0.00000E+00   -0.11959E+03 -0.33146E+03  0.45105E+03  0.23089E+03  0.83174E+02 -0.12541E+03      298.00
  0.25865E-01  0.85168E+03   -0.16500E-01 -0.16500E-01  0.33000E-01  0.00000E+00  0.00000E+00  0.00000E+00   -0.12005E+03 -0.33316E+03  0.45321E+03  0.23143E+03  0.83344E+02 -0.12602E+03      298.00
  0.26264E-01  0.85580E+03   -0.16750E-01 -0.16750E-01  0.33500E-01  0.00000E+00  0.00000E+00  0.00000E+00   -0.12073E+03 -0.33489E+03  0.45562E+03  0.23218E+03  0.83464E+02 -0.12688E+03      298.00
  0.26663E-01  0.85872E+03   -0.17000E-01 -0.17000E-01  0.34000E-01  0.00000E+00  0.00000E+00  0.00000E+00   -0.12104E+03 -0.33643E+03  0.45747E+03  0.23249E+03  0.83600E+02 -0.12729E+03      298.00
  0.27063E-01  0.86214E+03   -0.17250E-01 -0.17250E-01  0.34500E-01  0.00000E+00  0.00000E+00  0.00000E+00   -0.12148E+03 -0.33807E+03  0.45955E+03  0.23298E+03  0.83746E+02 -0.12786E+03      298.00
  0.27462E-01  0.86516E+03   -0.17500E-01 -0.17500E-01  0.35000E-01  0.00000E+00  0.00000E+00  0.00000E+00   -0.12197E+03 -0.33948E+03  0.46145E+03  0.23337E+03  0.83785E+02 -0.12842E+03      298.00
  0.27862E-01  0.86886E+03   -0.17750E-01 -0.17750E-01  0.35500E-01  0.00000E+00  0.00000E+00  0.00000E+00   -0.12242E+03 -0.34125E+03  0.46367E+03  0.23392E+03  0.83980E+02 -0.12905E+03      298.00
  0.28263E-01  0.87214E+03   -0.18000E-01 -0.18000E-01  0.36000E-01  0.00000E+00  0.00000E+00  0.00000E+00   -0.12286E+03 -0.34283E+03  0.46570E+03  0.23436E+03  0.84101E+02 -0.12961E+03      298.00
  0.28663E-01  0.87504E+03   -0.18250E-01 -0.18250E-01  0.36500E-01  0.00000E+00  0.00000E+00  0.00000E+00   -0.12334E+03 -0.34419E+03  0.46753E+03  0.23471E+03  0.84117E+02 -0.13014E+03      298.00
  0.29064E-01  0.87970E+03   -0.18500E-01 -0.18500E-01  0.37000E-01  0.00000E+00  0.00000E+00  0.00000E+00   -0.12376E+03 -0.34648E+03  0.47023E+03  0.23546E+03  0.84539E+02 -0.13087E+03      298.00
  0.29465E-01  0.88278E+03   -0.18750E-01 -0.18750E-01  0.37500E-01  0.00000E+00  0.00000E+00  0.00000E+00   -0.12420E+03 -0.34796E+03  0.47216E+03  0.23584E+03  0.84617E+02 -0.13140E+03      298.00
  0.29866E-01  0.88587E+03   -0.19000E-01 -0.19000E-01  0.38000E-01  0.00000E+00  0.00000E+00  0.00000E+00   -0.12465E+03 -0.34945E+03  0.47409E+03  0.23622E+03  0.84694E+02 -0.13195E+03      298.00
  0.30267E-01  0.88891E+03   -0.19250E-01 -0.19250E-01  0.38500E-01  0.00000E+00  0.00000E+00  0.00000E+00   -0.12509E+03 -0.35092E+03  0.47601E+03  0.23658E+03  0.84764E+02 -0.13248E+03      298.00
  0.30669E-01  0.89192E+03   -0.19500E-01 -0.19500E-01  0.39000E-01  0.00000E+00  0.00000E+00  0.00000E+00   -0.12553E+03 -0.35237E+03  0.47790E+03  0.23692E+03  0.84827E+02 -0.13301E+03      298.00
  0.31071E-01  0.89488E+03   -0.19750E-01 -0.19750E-01  0.39500E-01  0.00000E+00  0.00000E+00  0.00000E+00   -0.12597E+03 -0.35380E+03  0.47977E+03  0.23725E+03  0.84883E+02 -0.13352E+03      298.00
  0.31473E-01  0.89779E+03   -0.20000E-01 -0.20000E-01  0.40000E-01  0.00000E+00  0.00000E+00  0.00000E+00   -0.12640E+03 -0.35522E+03  0.48162E+03  0.23757E+03  0.84934E+02 -0.13403E+03      298.00
  0.31875E-01  0.90067E+03   -0.20250E-01 -0.20250E-01  0.40500E-01  0.00000E+00  0.00000E+00  0.00000E+00   -0.12683E+03 -0.35663E+03  0.48345E+03  0.23787E+03  0.84978E+02 -0.13454E+03      298.00
  0.32278E-01  0.90350E+03   -0.20500E-01 -0.20500E-01  0.41000E-01  0.00000E+00  0.00000E+00  0.00000E+00   -0.12725E+03 -0.35801E+03  0.48527E+03  0.23816E+03  0.85017E+02 -0.13503E+03      298.00
  0.32681E-01  0.90630E+03   -0.20750E-01 -0.20750E-01  0.41500E-01  0.00000E+00  0.00000E+00  0.00000E+00   -0.12767E+03 -0.35939E+03  0.48706E+03  0.23843E+03  0.85050E+02 -0.13552E+03      298.00
  0.33084E-01  0.90905E+03   -0.21000E-01 -0.21000E-01  0.42000E-01  0.00000E+00  0.00000E+00  0.00000E+00   -0.12809E+03 -0.36075E+03  0.48884E+03  0.23869E+03  0.85076E+02 -0.13600E+03      298.00
  0.33487E-01  0.91176E+03   -0.21250E-01 -0.21250E-01  0.42500E-01  0.00000E+00  0.00000E+00  0.00000E+00   -0.12851E+03 -0.36209E+03  0.49059E+03  0.23893E+03  0.85097E+02 -0.13647E+03      298.00
  0.33890E-01  0.91444E+03   -0.21500E-01 -0.21500E-01  0.43000E-01  0.00000E+00  0.00000E+00  0.00000E+00   -0.12892E+03 -0.36341E+03  0.49233E+03  0.23916E+03  0.85112E+02 -0.13693E+03      298.00
  0.34294E-01  0.91561E+03   -0.21750E-01 -0.21750E-01  0.43500E-01  0.00000E+00  0.00000E+00  0.00000E+00   -0.12930E+03 -0.36402E+03  0.49332E+03  0.23901E+03  0.84829E+02 -0.13722E+03      298.00
  0.34698E-01  0.91977E+03   -0.22000E-01 -0.22000E-01  0.44000E-01  0.00000E+00  0.00000E+00  0.00000E+00   -0.12975E+03 -0.36605E+03  0.49580E+03  0.23960E+03  0.85133E+02 -0.13788E+03      298.00
  0.35103E-01  0.92083E+03   -0.22250E-01 -0.22250E-01  0.44500E-01  0.00000E+00  0.00000E+00  0.00000E+00   -0.13014E+03 -0.36659E+03  0.49673E+03  0.23943E+03  0.84822E+02 -0.13815E+03      298.00
  0.35507E-01  0.92485E+03   -0.22500E-01 -0.22500E-01  0.45000E-01  0.00000E+00  0.00000E+00  0.00000E+00   -0.13055E+03 -0.36859E+03  0.49915E+03  0.23997E+03  0.85120E+02 -0.13877E+03      298.00
  0.35912E-01  0.92589E+03   -0.22750E-01 -0.22750E-01  0.45500E-01  0.00000E+00  0.00000E+00  0.00000E+00   -0.13096E+03 -0.36911E+03  0.50007E+03  0.23980E+03  0.84794E+02 -0.13904E+03      298.00
  0.36317E-01  0.92978E+03   -0.23000E-01 -0.23000E-01  0.46000E-01  0.00000E+00  0.00000E+00  0.00000E+00   -0.13135E+03 -0.37108E+03  0.50243E+03  0.24028E+03  0.85084E+02 -0.13964E+03      298.00
  0.36722E-01  0.93080E+03   -0.23250E-01 -0.23250E-01  0.46500E-01  0.00000E+00  0.00000E+00  0.00000E+00   -0.13177E+03 -0.37157E+03  0.50334E+03  0.24011E+03  0.84747E+02 -0.13991E+03      298.00
  0.37128E-01  0.93458E+03   -0.23500E-01 -0.23500E-01  0.47000E-01  0.00000E+00  0.00000E+00  0.00000E+00   -0.13213E+03 -0.37351E+03  0.50564E+03  0.24055E+03  0.85028E+02 -0.14048E+03      298.00
  0.37534E-01  0.93558E+03   -0.23750E-01 -0.23750E-01  0.47500E-01  0.00000E+00  0.00000E+00  0.00000E+00   -0.13256E+03 -0.37398E+03  0.50654E+03  0.24037E+03  0.84681E+02 -0.14075E+03      298.00
  0.37940E-01  0.93911E+03   -0.24000E-01 -0.24000E-01  0.48000E-01  0.00000E+00  0.00000E+00  0.00000E+00   -0.13296E+03 -0.37577E+03  0.50874E+03  0.24073E+03  0.84837E+02 -0.14135E+03      298.00
