          Evm          Svm            E11          E22          E33          E23          E13          E12         SDEV11       SDEV22       SDEV33       SDEV23       SDEV13       SDEV12      TEMP
  0.00000E+00  0.35046E+03    0.00000E+00  0.00000E+00  0.00000E+00  0.00000E+00  0.00000E+00  0.00000E+00   -0.12324E+03 -0.70075E+02  0.19332E+03  0.91119E+01 -0.10633E+03  0.28537E+02      298.00
  0.41371E-03  0.36003E+03   -0.25000E-03 -0.25000E-03  0.50000E-03  0.00000E+00  0.00000E+00  0.00000E+00   -0.12533E+03 -0.71070E+02  0.19640E+03  0.85922E+01 -0.11237E+03  0.29005E+02      298.00
  0.82285E-03  0.36894E+03   -0.50000E-03 -0.50000E-03  0.10000E-02  0.00000E+00  0.00000E+00  0.00000E+00   -0.12729E+03 -0.72098E+02  0.19939E+03  0.81110E+01 -0.11774E+03  0.29407E+02      298.00
  0.12282E-02  0.37733E+03   -0.75000E-03 -0.75000E-03  0.15000E-02  0.00000E+00  0.00000E+00  0.00000E+00   -0.12916E+03 -0.73130E+02  0.20229E+03  0.76964E+01 -0.12263E+03  0.29775E+02      298.00
  0.16303E-02  0.38527E+03   -0.10000E-02 -0.10000E-02  0.20000E-02  0.00000E+00  0.00000E+00  0.00000E+00   -0.13096E+03 -0.74158E+02  0.20512E+03  0.73439E+01 -0.12709E+03  0.30120E+02      298.00
  0.20296E-02  0.39277E+03   -0.12500E-02 -0.12500E-02  0.25000E-02  0.00000E+00  0.00000E+00  0.00000E+00   -0.13270E+03 -0.75182E+02  0.20788E+03  0.70464E+01 -0.13118E+03  0.30443E+02      298.00
  0.24265E-02  0.39991E+03   -0.15000E-02 -0.15000E-02  0.30000E-02  0.00000E+00  0.00000E+00  0.00000E+00   -0.13438E+03 -0.76195E+02  0.21058E+03  0.68013E+01 -0.13495E+03  0.30754E+02      298.00
  0.28215E-02  0.40670E+03   -0.17500E-02 -0.17500E-02  0.35000E-02  0.00000E+00  0.00000E+00  0.00000E+00   -0.13602E+03 -0.77197E+02  0.21321E+03  0.66031E+01 -0.13845E+03  0.31053E+02      298.00
  0.32146E-02  0.41322E+03   -0.20000E-02 -0.20000E-02  0.40000E-02  0.00000E+00  0.00000E+00  0.00000E+00   -0.13761E+03 -0.78181E+02  0.21579E+03  0.64520E+01 -0.14172E+03  0.31349E+02      298.00
  0.36063E-02  0.41949E+03   -0.22500E-02 -0.22500E-02  0.45000E-02  0.00000E+00  0.00000E+00  0.00000E+00   -0.13918E+03 -0.79146E+02  0.21832E+03  0.63448E+01 -0.14479E+03  0.31644E+02      298.00
  0.39967E-02  0.42556E+03   -0.25000E-02 -0.25000E-02  0.50000E-02  0.00000E+00  0.00000E+00  0.00000E+00   -0.14072E+03 -0.80085E+02  0.22080E+03  0.62849E+01 -0.14773E+03  0.31946E+02      298.00
  0.43858E-02  0.43151E+03   -0.27500E-02 -0.27500E-02  0.55000E-02  0.00000E+00  0.00000E+00  0.00000E+00   -0.14225E+03 -0.80989E+02  0.22323E+03  0.62814E+01 -0.15058E+03  0.32269E+02      298.00
  0.47738E-02  0.43730E+03   -0.30000E-02 -0.30000E-02  0.60000E-02  0.00000E+00  0.00000E+00  0.00000E+00   -0.14375E+03 -0.81871E+02  0.22562E+03  0.63103E+01 -0.15331E+03  0.32595E+02      298.00
  0.51607E-02  0.44299E+03   -0.32500E-02 -0.32500E-02  0.65000E-02  0.00000E+00  0.00000E+00  0.00000E+00   -0.14525E+03 -0.82722E+02  0.22797E+03  0.63857E+01 -0.15598E+03  0.32940E+02      298.00
  0.55467E-02  0.44860E+03   -0.35000E-02 -0.35000E-02  0.70000E-02  0.00000E+00  0.00000E+00  0.00000E+00   -0.14675E+03 -0.83538E+02  0.23028E+03  0.65039E+01 -0.15862E+03  0.33304E+02      298.00
  0.59317E-02  0.45417E+03   -0.37500E-02 -0.37500E-02  0.75000E-02  0.00000E+00  0.00000E+00  0.00000E+00   -0.14824E+03 -0.84318E+02  0.23256E+03  0.66659E+01 -0.16123E+03  0.33689E+02      298.00
  0.63158E-02  0.45962E+03   -0.40000E-02 -0.40000E-02  0.80000E-02  0.00000E+00  0.00000E+00  0.00000E+00   -0.14971E+03 -0.85083E+02  0.23479E+03  0.68483E+01 -0.16376E+03  0.34077E+02      298.00
  0.66989E-02  0.46505E+03   -0.42500E-02 -0.42500E-02  0.85000E-02  0.00000E+00  0.00000E+00  0.00000E+00   -0.15118E+03 -0.85815E+02  0.23700E+03  0.70730E+01 -0.16630E+03  0.34487E+02      298.00
  0.70811E-02  0.47037E+03   -0.45000E-02 -0.45000E-02  0.90000E-02  0.00000E+00  0.00000E+00  0.00000E+00   -0.15264E+03 -0.86529E+02  0.23917E+03  0.73152E+01 -0.16877E+03  0.34899E+02      298.00
  0.74625E-02  0.47564E+03   -0.47500E-02 -0.47500E-02  0.95000E-02  0.00000E+00  0.00000E+00  0.00000E+00   -0.15409E+03 -0.87219E+02  0.24131E+03  0.75821E+01 -0.17122E+03  0.35321E+02      298.00
  0.78430E-02  0.48097E+03   -0.50000E-02 -0.50000E-02  0.10000E-01  0.00000E+00  0.00000E+00  0.00000E+00   -0.15555E+03 -0.87864E+02  0.24342E+03  0.78950E+01 -0.17374E+03  0.35778E+02      298.00
  0.82225E-02  0.48609E+03   -0.52500E-02 -0.52500E-02  0.10500E-01  0.00000E+00  0.00000E+00  0.00000E+00   -0.15697E+03 -0.88524E+02  0.24550E+03  0.82013E+01 -0.17609E+03  0.36207E+02      298.00
  0.86013E-02  0.49127E+03   -0.55000E-02 -0.55000E-02  0.11000E-01  0.00000E+00  0.00000E+00  0.00000E+00   -0.15841E+03 -0.89140E+02  0.24755E+03  0.85472E+01 -0.17853E+03  0.36668E+02      298.00
  0.89792E-02  0.49639E+03   -0.57500E-02 -0.57500E-02  0.11500E-01  0.00000E+00  0.00000E+00  0.00000E+00   -0.15983E+03 -0.89745E+02  0.24957E+03  0.89096E+01 -0.18092E+03  0.37131E+02      298.00
  0.93563E-02  0.50154E+03   -0.60000E-02 -0.60000E-02  0.12000E-01  0.00000E+00  0.00000E+00  0.00000E+00   -0.16125E+03 -0.90318E+02  0.25157E+03  0.93034E+01 -0.18336E+03  0.37616E+02      298.00
  0.97325E-02  0.50649E+03   -0.62500E-02 -0.62500E-02  0.12500E-01  0.00000E+00  0.00000E+00  0.00000E+00   -0.16264E+03 -0.90905E+02  0.25354E+03  0.96863E+01 -0.18566E+03  0.38071E+02      298.00
  0.10108E-01  0.51158E+03   -0.65000E-02 -0.65000E-02  0.13000E-01  0.00000E+00  0.00000E+00  0.00000E+00   -0.16404E+03 -0.91442E+02  0.25549E+03  0.10110E+02 -0.18808E+03  0.38568E+02      298.00
  0.10483E-01  0.51645E+03   -0.67500E-02 -0.67500E-02  0.13500E-01  0.00000E+00  0.00000E+00  0.00000E+00   -0.16541E+03 -0.91999E+02  0.25740E+03  0.10520E+02 -0.19034E+03  0.39029E+02      298.00
  0.10856E-01  0.52129E+03   -0.70000E-02 -0.70000E-02  0.14000E-01  0.00000E+00  0.00000E+00  0.00000E+00   -0.16676E+03 -0.92539E+02  0.25930E+03  0.10948E+02 -0.19261E+03  0.39498E+02      298.00
  0.11229E-01  0.52632E+03   -0.72500E-02 -0.72500E-02  0.14500E-01  0.00000E+00  0.00000E+00  0.00000E+00   -0.16815E+03 -0.93025E+02  0.26117E+03  0.11404E+02 -0.19503E+03  0.40009E+02      298.00
  0.11602E-01  0.53109E+03   -0.75000E-02 -0.75000E-02  0.15000E-01  0.00000E+00  0.00000E+00  0.00000E+00   -0.16948E+03 -0.93541E+02  0.26302E+03  0.11852E+02 -0.19727E+03  0.40480E+02      298.00
  0.11973E-01  0.53583E+03   -0.77500E-02 -0.77500E-02  0.15500E-01  0.00000E+00  0.00000E+00  0.00000E+00   -0.17080E+03 -0.94043E+02  0.26484E+03  0.12311E+02 -0.19949E+03  0.40953E+02      298.00
  0.12344E-01  0.54054E+03   -0.80000E-02 -0.80000E-02  0.16000E-01  0.00000E+00  0.00000E+00  0.00000E+00   -0.17211E+03 -0.94534E+02  0.26664E+03  0.12780E+02 -0.20171E+03  0.41428E+02      298.00
  0.12714E-01  0.54522E+03   -0.82500E-02 -0.82500E-02  0.16500E-01  0.00000E+00  0.00000E+00  0.00000E+00   -0.17341E+03 -0.95013E+02  0.26842E+03  0.13258E+02 -0.20392E+03  0.41903E+02      298.00
  0.13083E-01  0.55017E+03   -0.85000E-02 -0.85000E-02  0.17000E-01  0.00000E+00  0.00000E+00  0.00000E+00   -0.17475E+03 -0.95426E+02  0.27018E+03  0.13745E+02 -0.20636E+03  0.42431E+02      298.00
  0.13451E-01  0.55475E+03   -0.87500E-02 -0.87500E-02  0.17500E-01  0.00000E+00  0.00000E+00  0.00000E+00   -0.17602E+03 -0.95892E+02  0.27191E+03  0.14229E+02 -0.20852E+03  0.42898E+02      298.00
  0.13819E-01  0.55931E+03   -0.90000E-02 -0.90000E-02  0.18000E-01  0.00000E+00  0.00000E+00  0.00000E+00   -0.17728E+03 -0.96347E+02  0.27363E+03  0.14721E+02 -0.21068E+03  0.43366E+02      298.00
  0.14186E-01  0.56384E+03   -0.92500E-02 -0.92500E-02  0.18500E-01  0.00000E+00  0.00000E+00  0.00000E+00   -0.17853E+03 -0.96792E+02  0.27532E+03  0.15217E+02 -0.21284E+03  0.43834E+02      298.00
  0.14552E-01  0.56835E+03   -0.95000E-02 -0.95000E-02  0.19000E-01  0.00000E+00  0.00000E+00  0.00000E+00   -0.17976E+03 -0.97227E+02  0.27699E+03  0.15719E+02 -0.21499E+03  0.44302E+02      298.00
  0.14917E-01  0.57283E+03   -0.97500E-02 -0.97500E-02  0.19500E-01  0.00000E+00  0.00000E+00  0.00000E+00   -0.18098E+03 -0.97654E+02  0.27864E+03  0.16227E+02 -0.21713E+03  0.44769E+02      298.00
  0.15282E-01  0.57726E+03   -0.10000E-01 -0.10000E-01  0.20000E-01  0.00000E+00  0.00000E+00  0.00000E+00   -0.18219E+03 -0.98078E+02  0.28027E+03  0.16738E+02 -0.21925E+03  0.45230E+02      298.00
  0.15646E-01  0.58162E+03   -0.10250E-01 -0.10250E-01  0.20500E-01  0.00000E+00  0.00000E+00  0.00000E+00   -0.18338E+03 -0.98501E+02  0.28188E+03  0.17246E+02 -0.22132E+03  0.45679E+02      298.00
  0.16010E-01  0.58592E+03   -0.10500E-01 -0.10500E-01  0.21000E-01  0.00000E+00  0.00000E+00  0.00000E+00   -0.18455E+03 -0.98919E+02  0.28346E+03  0.17752E+02 -0.22338E+03  0.46123E+02      298.00
  0.16373E-01  0.59061E+03   -0.10750E-01 -0.10750E-01  0.21500E-01  0.00000E+00  0.00000E+00  0.00000E+00   -0.18578E+03 -0.99261E+02  0.28504E+03  0.18251E+02 -0.22573E+03  0.46633E+02      298.00
  0.16735E-01  0.59486E+03   -0.11000E-01 -0.11000E-01  0.22000E-01  0.00000E+00  0.00000E+00  0.00000E+00   -0.18693E+03 -0.99664E+02  0.28659E+03  0.18738E+02 -0.22777E+03  0.47066E+02      298.00
  0.17096E-01  0.59911E+03   -0.11250E-01 -0.11250E-01  0.22500E-01  0.00000E+00  0.00000E+00  0.00000E+00   -0.18807E+03 -0.10006E+03  0.28813E+03  0.19229E+02 -0.22983E+03  0.47503E+02      298.00
  0.17457E-01  0.60334E+03   -0.11500E-01 -0.11500E-01  0.23000E-01  0.00000E+00  0.00000E+00  0.00000E+00   -0.18920E+03 -0.10044E+03  0.28964E+03  0.19727E+02 -0.23187E+03  0.47939E+02      298.00
  0.17817E-01  0.60753E+03   -0.11750E-01 -0.11750E-01  0.23500E-01  0.00000E+00  0.00000E+00  0.00000E+00   -0.19031E+03 -0.10083E+03  0.29113E+03  0.20229E+02 -0.23390E+03  0.48370E+02      298.00
  0.18176E-01  0.61167E+03   -0.12000E-01 -0.12000E-01  0.24000E-01  0.00000E+00  0.00000E+00  0.00000E+00   -0.19141E+03 -0.10120E+03  0.29261E+03  0.20732E+02 -0.23591E+03  0.48797E+02      298.00
  0.18535E-01  0.61579E+03   -0.12250E-01 -0.12250E-01  0.24500E-01  0.00000E+00  0.00000E+00  0.00000E+00   -0.19249E+03 -0.10158E+03  0.29407E+03  0.21235E+02 -0.23791E+03  0.49219E+02      298.00
  0.18893E-01  0.61986E+03   -0.12500E-01 -0.12500E-01  0.25000E-01  0.00000E+00  0.00000E+00  0.00000E+00   -0.19356E+03 -0.10195E+03  0.29551E+03  0.21737E+02 -0.23989E+03  0.49636E+02      298.00
          Evm          Svm            E11          E22          E33          E23          E13          E12         SDEV11       SDEV22       SDEV33       SDEV23       SDEV13       SDEV12      TEMP
  0.18893E-01  0.61967E+03   -0.12500E-01 -0.12500E-01  0.25000E-01  0.00000E+00  0.00000E+00  0.00000E+00   -0.19350E+03 -0.10200E+03  0.29550E+03  0.21926E+02 -0.23973E+03  0.49647E+02      298.00
  0.19251E-01  0.62389E+03   -0.12750E-01 -0.12750E-01  0.25500E-01  0.00000E+00  0.00000E+00  0.00000E+00   -0.19461E+03 -0.10232E+03  0.29693E+03  0.22238E+02 -0.24186E+03  0.50047E+02      298.00
  0.19608E-01  0.62751E+03   -0.13000E-01 -0.13000E-01  0.26000E-01  0.00000E+00  0.00000E+00  0.00000E+00   -0.19558E+03 -0.10275E+03  0.29832E+03  0.22720E+02 -0.24352E+03  0.50382E+02      298.00
  0.19964E-01  0.63148E+03   -0.13250E-01 -0.13250E-01  0.26500E-01  0.00000E+00  0.00000E+00  0.00000E+00   -0.19660E+03 -0.10311E+03  0.29971E+03  0.23218E+02 -0.24546E+03  0.50785E+02      298.00
  0.20320E-01  0.63542E+03   -0.13500E-01 -0.13500E-01  0.27000E-01  0.00000E+00  0.00000E+00  0.00000E+00   -0.19761E+03 -0.10346E+03  0.30108E+03  0.23714E+02 -0.24739E+03  0.51183E+02      298.00
  0.20676E-01  0.63933E+03   -0.13750E-01 -0.13750E-01  0.27500E-01  0.00000E+00  0.00000E+00  0.00000E+00   -0.19861E+03 -0.10382E+03  0.30243E+03  0.24207E+02 -0.24931E+03  0.51576E+02      298.00
  0.21030E-01  0.64358E+03   -0.14000E-01 -0.14000E-01  0.28000E-01  0.00000E+00  0.00000E+00  0.00000E+00   -0.19968E+03 -0.10410E+03  0.30378E+03  0.24583E+02 -0.25152E+03  0.52005E+02      298.00
  0.21384E-01  0.64741E+03   -0.14250E-01 -0.14250E-01  0.28500E-01  0.00000E+00  0.00000E+00  0.00000E+00   -0.20065E+03 -0.10444E+03  0.30510E+03  0.25064E+02 -0.25340E+03  0.52386E+02      298.00
  0.21738E-01  0.65121E+03   -0.14500E-01 -0.14500E-01  0.29000E-01  0.00000E+00  0.00000E+00  0.00000E+00   -0.20161E+03 -0.10479E+03  0.30640E+03  0.25541E+02 -0.25528E+03  0.52761E+02      298.00
  0.22091E-01  0.65497E+03   -0.14750E-01 -0.14750E-01  0.29500E-01  0.00000E+00  0.00000E+00  0.00000E+00   -0.20255E+03 -0.10513E+03  0.30769E+03  0.26015E+02 -0.25714E+03  0.53130E+02      298.00
  0.22443E-01  0.65870E+03   -0.15000E-01 -0.15000E-01  0.30000E-01  0.00000E+00  0.00000E+00  0.00000E+00   -0.20348E+03 -0.10547E+03  0.30896E+03  0.26484E+02 -0.25899E+03  0.53495E+02      298.00
  0.22795E-01  0.66240E+03   -0.15250E-01 -0.15250E-01  0.30500E-01  0.00000E+00  0.00000E+00  0.00000E+00   -0.20440E+03 -0.10581E+03  0.31021E+03  0.26950E+02 -0.26082E+03  0.53854E+02      298.00
  0.23146E-01  0.66607E+03   -0.15500E-01 -0.15500E-01  0.31000E-01  0.00000E+00  0.00000E+00  0.00000E+00   -0.20531E+03 -0.10614E+03  0.31145E+03  0.27412E+02 -0.26264E+03  0.54207E+02      298.00
  0.23497E-01  0.66970E+03   -0.15750E-01 -0.15750E-01  0.31500E-01  0.00000E+00  0.00000E+00  0.00000E+00   -0.20620E+03 -0.10648E+03  0.31267E+03  0.27870E+02 -0.26445E+03  0.54556E+02      298.00
  0.23847E-01  0.67330E+03   -0.16000E-01 -0.16000E-01  0.32000E-01  0.00000E+00  0.00000E+00  0.00000E+00   -0.20707E+03 -0.10681E+03  0.31388E+03  0.28323E+02 -0.26625E+03  0.54899E+02      298.00
  0.24197E-01  0.67687E+03   -0.16250E-01 -0.16250E-01  0.32500E-01  0.00000E+00  0.00000E+00  0.00000E+00   -0.20794E+03 -0.10713E+03  0.31507E+03  0.28772E+02 -0.26804E+03  0.55237E+02      298.00
  0.24546E-01  0.68040E+03   -0.16500E-01 -0.16500E-01  0.33000E-01  0.00000E+00  0.00000E+00  0.00000E+00   -0.20879E+03 -0.10746E+03  0.31625E+03  0.29216E+02 -0.26981E+03  0.55569E+02      298.00
  0.24894E-01  0.68391E+03   -0.16750E-01 -0.16750E-01  0.33500E-01  0.00000E+00  0.00000E+00  0.00000E+00   -0.20963E+03 -0.10778E+03  0.31741E+03  0.29655E+02 -0.27157E+03  0.55896E+02      298.00
  0.25242E-01  0.68738E+03   -0.17000E-01 -0.17000E-01  0.34000E-01  0.00000E+00  0.00000E+00  0.00000E+00   -0.21046E+03 -0.10810E+03  0.31856E+03  0.30090E+02 -0.27332E+03  0.56218E+02      298.00
  0.25590E-01  0.69082E+03   -0.17250E-01 -0.17250E-01  0.34500E-01  0.00000E+00  0.00000E+00  0.00000E+00   -0.21127E+03 -0.10842E+03  0.31969E+03  0.30520E+02 -0.27505E+03  0.56534E+02      298.00
  0.25937E-01  0.69423E+03   -0.17500E-01 -0.17500E-01  0.35000E-01  0.00000E+00  0.00000E+00  0.00000E+00   -0.21207E+03 -0.10874E+03  0.32081E+03  0.30946E+02 -0.27677E+03  0.56845E+02      298.00
  0.26284E-01  0.69761E+03   -0.17750E-01 -0.17750E-01  0.35500E-01  0.00000E+00  0.00000E+00  0.00000E+00   -0.21286E+03 -0.10906E+03  0.32191E+03  0.31366E+02 -0.27848E+03  0.57151E+02      298.00
  0.26630E-01  0.70096E+03   -0.18000E-01 -0.18000E-01  0.36000E-01  0.00000E+00  0.00000E+00  0.00000E+00   -0.21364E+03 -0.10937E+03  0.32300E+03  0.31781E+02 -0.28018E+03  0.57452E+02      298.00
  0.26975E-01  0.70427E+03   -0.18250E-01 -0.18250E-01  0.36500E-01  0.00000E+00  0.00000E+00  0.00000E+00   -0.21440E+03 -0.10968E+03  0.32408E+03  0.32192E+02 -0.28187E+03  0.57747E+02      298.00
  0.27320E-01  0.70756E+03   -0.18500E-01 -0.18500E-01  0.37000E-01  0.00000E+00  0.00000E+00  0.00000E+00   -0.21515E+03 -0.10999E+03  0.32514E+03  0.32598E+02 -0.28354E+03  0.58037E+02      298.00
  0.27665E-01  0.71082E+03   -0.18750E-01 -0.18750E-01  0.37500E-01  0.00000E+00  0.00000E+00  0.00000E+00   -0.21589E+03 -0.11030E+03  0.32619E+03  0.32998E+02 -0.28520E+03  0.58322E+02      298.00
  0.28009E-01  0.71404E+03   -0.19000E-01 -0.19000E-01  0.38000E-01  0.00000E+00  0.00000E+00  0.00000E+00   -0.21662E+03 -0.11060E+03  0.32723E+03  0.33394E+02 -0.28685E+03  0.58602E+02      298.00
  0.28353E-01  0.71724E+03   -0.19250E-01 -0.19250E-01  0.38500E-01  0.00000E+00  0.00000E+00  0.00000E+00   -0.21734E+03 -0.11091E+03  0.32825E+03  0.33785E+02 -0.28849E+03  0.58877E+02      298.00
  0.28696E-01  0.72041E+03   -0.19500E-01 -0.19500E-01  0.39000E-01  0.00000E+00  0.00000E+00  0.00000E+00   -0.21805E+03 -0.11121E+03  0.32926E+03  0.34171E+02 -0.29012E+03  0.59146E+02      298.00
  0.29039E-01  0.72354E+03   -0.19750E-01 -0.19750E-01  0.39500E-01  0.00000E+00  0.00000E+00  0.00000E+00   -0.21874E+03 -0.11151E+03  0.33025E+03  0.34551E+02 -0.29173E+03  0.59411E+02      298.00
  0.29381E-01  0.72665E+03   -0.20000E-01 -0.20000E-01  0.40000E-01  0.00000E+00  0.00000E+00  0.00000E+00   -0.21942E+03 -0.11181E+03  0.33123E+03  0.34927E+02 -0.29333E+03  0.59670E+02      298.00
  0.29723E-01  0.72973E+03   -0.20250E-01 -0.20250E-01  0.40500E-01  0.00000E+00  0.00000E+00  0.00000E+00   -0.22009E+03 -0.11211E+03  0.33220E+03  0.35298E+02 -0.29492E+03  0.59924E+02      298.00
  0.30065E-01  0.73278E+03   -0.20500E-01 -0.20500E-01  0.41000E-01  0.00000E+00  0.00000E+00  0.00000E+00   -0.22075E+03 -0.11241E+03  0.33316E+03  0.35664E+02 -0.29650E+03  0.60173E+02      298.00
  0.30406E-01  0.73580E+03   -0.20750E-01 -0.20750E-01  0.41500E-01  0.00000E+00  0.00000E+00  0.00000E+00   -0.22140E+03 -0.11270E+03  0.33411E+03  0.36025E+02 -0.29807E+03  0.60418E+02      298.00
  0.30746E-01  0.73879E+03   -0.21000E-01 -0.21000E-01  0.42000E-01  0.00000E+00  0.00000E+00  0.00000E+00   -0.22204E+03 -0.11300E+03  0.33504E+03  0.36381E+02 -0.29962E+03  0.60657E+02      298.00
  0.31086E-01  0.74175E+03   -0.21250E-01 -0.21250E-01  0.42500E-01  0.00000E+00  0.00000E+00  0.00000E+00   -0.22267E+03 -0.11329E+03  0.33596E+03  0.36733E+02 -0.30117E+03  0.60891E+02      298.00
  0.31426E-01  0.74469E+03   -0.21500E-01 -0.21500E-01  0.43000E-01  0.00000E+00  0.00000E+00  0.00000E+00   -0.22329E+03 -0.11358E+03  0.33686E+03  0.37079E+02 -0.30270E+03  0.61121E+02      298.00
  0.31765E-01  0.74760E+03   -0.21750E-01 -0.21750E-01  0.43500E-01  0.00000E+00  0.00000E+00  0.00000E+00   -0.22389E+03 -0.11387E+03  0.33776E+03  0.37421E+02 -0.30422E+03  0.61346E+02      298.00
  0.32104E-01  0.75048E+03   -0.22000E-01 -0.22000E-01  0.44000E-01  0.00000E+00  0.00000E+00  0.00000E+00   -0.22449E+03 -0.11416E+03  0.33864E+03  0.37758E+02 -0.30573E+03  0.61565E+02      298.00
  0.32443E-01  0.75333E+03   -0.22250E-01 -0.22250E-01  0.44500E-01  0.00000E+00  0.00000E+00  0.00000E+00   -0.22507E+03 -0.11444E+03  0.33952E+03  0.38090E+02 -0.30723E+03  0.61780E+02      298.00
  0.32781E-01  0.75615E+03   -0.22500E-01 -0.22500E-01  0.45000E-01  0.00000E+00  0.00000E+00  0.00000E+00   -0.22565E+03 -0.11473E+03  0.34038E+03  0.38418E+02 -0.30871E+03  0.61990E+02      298.00
  0.33118E-01  0.75895E+03   -0.22750E-01 -0.22750E-01  0.45500E-01  0.00000E+00  0.00000E+00  0.00000E+00   -0.22621E+03 -0.11502E+03  0.34123E+03  0.38740E+02 -0.31019E+03  0.62196E+02      298.00
  0.33455E-01  0.76148E+03   -0.23000E-01 -0.23000E-01  0.46000E-01  0.00000E+00  0.00000E+00  0.00000E+00   -0.22670E+03 -0.11536E+03  0.34205E+03  0.39302E+02 -0.31144E+03  0.62400E+02      298.00
  0.33792E-01  0.76422E+03   -0.23250E-01 -0.23250E-01  0.46500E-01  0.00000E+00  0.00000E+00  0.00000E+00   -0.22724E+03 -0.11564E+03  0.34288E+03  0.39615E+02 -0.31289E+03  0.62596E+02      298.00
  0.34129E-01  0.76694E+03   -0.23500E-01 -0.23500E-01  0.47000E-01  0.00000E+00  0.00000E+00  0.00000E+00   -0.22778E+03 -0.11592E+03  0.34370E+03  0.39926E+02 -0.31433E+03  0.62788E+02      298.00
  0.34465E-01  0.76963E+03   -0.23750E-01 -0.23750E-01  0.47500E-01  0.00000E+00  0.00000E+00  0.00000E+00   -0.22830E+03 -0.11620E+03  0.34450E+03  0.40231E+02 -0.31577E+03  0.62975E+02      298.00
  0.34801E-01  0.77230E+03   -0.24000E-01 -0.24000E-01  0.48000E-01  0.00000E+00  0.00000E+00  0.00000E+00   -0.22882E+03 -0.11648E+03  0.34529E+03  0.40532E+02 -0.31719E+03  0.63158E+02      298.00
