          Evm          Svm            E11          E22          E33          E23          E13          E12         SDEV11       SDEV22       SDEV33       SDEV23       SDEV13       SDEV12      TEMP
  0.00000E+00  0.47016E+03    0.00000E+00  0.00000E+00  0.00000E+00  0.00000E+00  0.00000E+00  0.00000E+00   -0.35638E+02 -0.23403E+03  0.26967E+03  0.76836E+02  0.39632E+00 -0.58305E+02      298.00
  0.43017E-03  0.48072E+03   -0.25000E-03 -0.25000E-03  0.50000E-03  0.00000E+00  0.00000E+00  0.00000E+00   -0.38294E+02 -0.23858E+03  0.27688E+03  0.77544E+02 -0.64628E+00 -0.59089E+02      298.00
  0.86215E-03  0.49084E+03   -0.50000E-03 -0.50000E-03  0.10000E-02  0.00000E+00  0.00000E+00  0.00000E+00   -0.40586E+02 -0.24311E+03  0.28369E+03  0.78254E+02 -0.14158E+01 -0.59736E+02      298.00
  0.12956E-02  0.50077E+03   -0.75000E-03 -0.75000E-03  0.15000E-02  0.00000E+00  0.00000E+00  0.00000E+00   -0.42664E+02 -0.24758E+03  0.29025E+03  0.79023E+02 -0.21116E+01 -0.60499E+02      298.00
  0.17303E-02  0.51064E+03   -0.10000E-02 -0.10000E-02  0.20000E-02  0.00000E+00  0.00000E+00  0.00000E+00   -0.44540E+02 -0.25210E+03  0.29664E+03  0.79855E+02 -0.27355E+01 -0.61352E+02      298.00
  0.21660E-02  0.52037E+03   -0.12500E-02 -0.12500E-02  0.25000E-02  0.00000E+00  0.00000E+00  0.00000E+00   -0.46227E+02 -0.25663E+03  0.30286E+03  0.80722E+02 -0.32643E+01 -0.62236E+02      298.00
  0.26025E-02  0.52987E+03   -0.15000E-02 -0.15000E-02  0.30000E-02  0.00000E+00  0.00000E+00  0.00000E+00   -0.47742E+02 -0.26112E+03  0.30886E+03  0.81600E+02 -0.36997E+01 -0.63122E+02      298.00
  0.30397E-02  0.53918E+03   -0.17500E-02 -0.17500E-02  0.35000E-02  0.00000E+00  0.00000E+00  0.00000E+00   -0.49147E+02 -0.26553E+03  0.31468E+03  0.82496E+02 -0.41297E+01 -0.64103E+02      298.00
  0.34774E-02  0.54835E+03   -0.20000E-02 -0.20000E-02  0.40000E-02  0.00000E+00  0.00000E+00  0.00000E+00   -0.50417E+02 -0.26994E+03  0.32036E+03  0.83401E+02 -0.44794E+01 -0.65077E+02      298.00
  0.39156E-02  0.55735E+03   -0.22500E-02 -0.22500E-02  0.45000E-02  0.00000E+00  0.00000E+00  0.00000E+00   -0.51576E+02 -0.27431E+03  0.32588E+03  0.84307E+02 -0.47718E+01 -0.66053E+02      298.00
  0.43541E-02  0.56619E+03   -0.25000E-02 -0.25000E-02  0.50000E-02  0.00000E+00  0.00000E+00  0.00000E+00   -0.52641E+02 -0.27864E+03  0.33128E+03  0.85211E+02 -0.50227E+01 -0.67039E+02      298.00
  0.47929E-02  0.57487E+03   -0.27500E-02 -0.27500E-02  0.55000E-02  0.00000E+00  0.00000E+00  0.00000E+00   -0.53626E+02 -0.28292E+03  0.33654E+03  0.86109E+02 -0.52397E+01 -0.68033E+02      298.00
  0.52320E-02  0.58340E+03   -0.30000E-02 -0.30000E-02  0.60000E-02  0.00000E+00  0.00000E+00  0.00000E+00   -0.54540E+02 -0.28715E+03  0.34169E+03  0.86998E+02 -0.54282E+01 -0.69032E+02      298.00
  0.56713E-02  0.59189E+03   -0.32500E-02 -0.32500E-02  0.65000E-02  0.00000E+00  0.00000E+00  0.00000E+00   -0.55417E+02 -0.29136E+03  0.34677E+03  0.87896E+02 -0.56476E+01 -0.70106E+02      298.00
  0.61107E-02  0.60013E+03   -0.35000E-02 -0.35000E-02  0.70000E-02  0.00000E+00  0.00000E+00  0.00000E+00   -0.56216E+02 -0.29549E+03  0.35170E+03  0.88760E+02 -0.57910E+01 -0.71108E+02      298.00
  0.65502E-02  0.60823E+03   -0.37500E-02 -0.37500E-02  0.75000E-02  0.00000E+00  0.00000E+00  0.00000E+00   -0.56967E+02 -0.29957E+03  0.35653E+03  0.89607E+02 -0.59162E+01 -0.72108E+02      298.00
  0.69898E-02  0.61619E+03   -0.40000E-02 -0.40000E-02  0.80000E-02  0.00000E+00  0.00000E+00  0.00000E+00   -0.57677E+02 -0.30359E+03  0.36127E+03  0.90437E+02 -0.60273E+01 -0.73105E+02      298.00
  0.74296E-02  0.62402E+03   -0.42500E-02 -0.42500E-02  0.85000E-02  0.00000E+00  0.00000E+00  0.00000E+00   -0.58350E+02 -0.30757E+03  0.36592E+03  0.91249E+02 -0.61267E+01 -0.74098E+02      298.00
  0.78694E-02  0.63172E+03   -0.45000E-02 -0.45000E-02  0.90000E-02  0.00000E+00  0.00000E+00  0.00000E+00   -0.58992E+02 -0.31148E+03  0.37048E+03  0.92041E+02 -0.62166E+01 -0.75086E+02      298.00
  0.83092E-02  0.63930E+03   -0.47500E-02 -0.47500E-02  0.95000E-02  0.00000E+00  0.00000E+00  0.00000E+00   -0.59605E+02 -0.31535E+03  0.37495E+03  0.92813E+02 -0.62986E+01 -0.76066E+02      298.00
  0.87491E-02  0.64674E+03   -0.50000E-02 -0.50000E-02  0.10000E-01  0.00000E+00  0.00000E+00  0.00000E+00   -0.60194E+02 -0.31916E+03  0.37935E+03  0.93563E+02 -0.63744E+01 -0.77040E+02      298.00
  0.91890E-02  0.65422E+03   -0.52500E-02 -0.52500E-02  0.10500E-01  0.00000E+00  0.00000E+00  0.00000E+00   -0.60787E+02 -0.32296E+03  0.38375E+03  0.94319E+02 -0.65056E+01 -0.78085E+02      298.00
  0.96289E-02  0.66142E+03   -0.55000E-02 -0.55000E-02  0.11000E-01  0.00000E+00  0.00000E+00  0.00000E+00   -0.61337E+02 -0.32666E+03  0.38800E+03  0.95025E+02 -0.65777E+01 -0.79047E+02      298.00
  0.10069E-01  0.66829E+03   -0.57500E-02 -0.57500E-02  0.11500E-01  0.00000E+00  0.00000E+00  0.00000E+00   -0.61858E+02 -0.33019E+03  0.39205E+03  0.95675E+02 -0.66298E+01 -0.79951E+02      298.00
  0.10509E-01  0.67526E+03   -0.60000E-02 -0.60000E-02  0.12000E-01  0.00000E+00  0.00000E+00  0.00000E+00   -0.62366E+02 -0.33380E+03  0.39616E+03  0.96334E+02 -0.66806E+01 -0.80874E+02      298.00
  0.10949E-01  0.68212E+03   -0.62500E-02 -0.62500E-02  0.12500E-01  0.00000E+00  0.00000E+00  0.00000E+00   -0.62862E+02 -0.33734E+03  0.40021E+03  0.96971E+02 -0.67319E+01 -0.81788E+02      298.00
  0.11389E-01  0.68887E+03   -0.65000E-02 -0.65000E-02  0.13000E-01  0.00000E+00  0.00000E+00  0.00000E+00   -0.63347E+02 -0.34084E+03  0.40418E+03  0.97585E+02 -0.67844E+01 -0.82694E+02      298.00
  0.11829E-01  0.69551E+03   -0.67500E-02 -0.67500E-02  0.13500E-01  0.00000E+00  0.00000E+00  0.00000E+00   -0.63821E+02 -0.34428E+03  0.40810E+03  0.98177E+02 -0.68383E+01 -0.83591E+02      298.00
  0.12269E-01  0.70204E+03   -0.70000E-02 -0.70000E-02  0.14000E-01  0.00000E+00  0.00000E+00  0.00000E+00   -0.64286E+02 -0.34766E+03  0.41195E+03  0.98745E+02 -0.68937E+01 -0.84478E+02      298.00
  0.12709E-01  0.70846E+03   -0.72500E-02 -0.72500E-02  0.14500E-01  0.00000E+00  0.00000E+00  0.00000E+00   -0.64743E+02 -0.35100E+03  0.41574E+03  0.99291E+02 -0.69506E+01 -0.85355E+02      298.00
  0.13149E-01  0.71529E+03   -0.75000E-02 -0.75000E-02  0.15000E-01  0.00000E+00  0.00000E+00  0.00000E+00   -0.65208E+02 -0.35454E+03  0.41974E+03  0.99885E+02 -0.70702E+01 -0.86334E+02      298.00
  0.13589E-01  0.72150E+03   -0.77500E-02 -0.77500E-02  0.15500E-01  0.00000E+00  0.00000E+00  0.00000E+00   -0.65651E+02 -0.35776E+03  0.42341E+03  0.10038E+03 -0.71355E+01 -0.87194E+02      298.00
  0.14029E-01  0.72761E+03   -0.80000E-02 -0.80000E-02  0.16000E-01  0.00000E+00  0.00000E+00  0.00000E+00   -0.66086E+02 -0.36094E+03  0.42702E+03  0.10086E+03 -0.72003E+01 -0.88040E+02      298.00
  0.14470E-01  0.73362E+03   -0.82500E-02 -0.82500E-02  0.16500E-01  0.00000E+00  0.00000E+00  0.00000E+00   -0.66515E+02 -0.36406E+03  0.43058E+03  0.10132E+03 -0.72667E+01 -0.88874E+02      298.00
  0.14910E-01  0.73953E+03   -0.85000E-02 -0.85000E-02  0.17000E-01  0.00000E+00  0.00000E+00  0.00000E+00   -0.66938E+02 -0.36714E+03  0.43408E+03  0.10175E+03 -0.73350E+01 -0.89697E+02      298.00
  0.15350E-01  0.74535E+03   -0.87500E-02 -0.87500E-02  0.17500E-01  0.00000E+00  0.00000E+00  0.00000E+00   -0.67356E+02 -0.37017E+03  0.43753E+03  0.10216E+03 -0.74052E+01 -0.90509E+02      298.00
  0.15790E-01  0.75108E+03   -0.90000E-02 -0.90000E-02  0.18000E-01  0.00000E+00  0.00000E+00  0.00000E+00   -0.67769E+02 -0.37316E+03  0.44093E+03  0.10256E+03 -0.74774E+01 -0.91309E+02      298.00
  0.16231E-01  0.75671E+03   -0.92500E-02 -0.92500E-02  0.18500E-01  0.00000E+00  0.00000E+00  0.00000E+00   -0.68176E+02 -0.37610E+03  0.44427E+03  0.10293E+03 -0.75518E+01 -0.92097E+02      298.00
  0.16671E-01  0.76225E+03   -0.95000E-02 -0.95000E-02  0.19000E-01  0.00000E+00  0.00000E+00  0.00000E+00   -0.68580E+02 -0.37899E+03  0.44757E+03  0.10328E+03 -0.76283E+01 -0.92875E+02      298.00
  0.17111E-01  0.76770E+03   -0.97500E-02 -0.97500E-02  0.19500E-01  0.00000E+00  0.00000E+00  0.00000E+00   -0.68979E+02 -0.38183E+03  0.45081E+03  0.10361E+03 -0.77070E+01 -0.93641E+02      298.00
  0.17552E-01  0.77307E+03   -0.10000E-01 -0.10000E-01  0.20000E-01  0.00000E+00  0.00000E+00  0.00000E+00   -0.69374E+02 -0.38464E+03  0.45401E+03  0.10392E+03 -0.77880E+01 -0.94396E+02      298.00
  0.17992E-01  0.77835E+03   -0.10250E-01 -0.10250E-01  0.20500E-01  0.00000E+00  0.00000E+00  0.00000E+00   -0.69765E+02 -0.38740E+03  0.45716E+03  0.10421E+03 -0.78711E+01 -0.95139E+02      298.00
  0.18433E-01  0.78354E+03   -0.10500E-01 -0.10500E-01  0.21000E-01  0.00000E+00  0.00000E+00  0.00000E+00   -0.70152E+02 -0.39011E+03  0.46026E+03  0.10448E+03 -0.79565E+01 -0.95872E+02      298.00
  0.18873E-01  0.78865E+03   -0.10750E-01 -0.10750E-01  0.21500E-01  0.00000E+00  0.00000E+00  0.00000E+00   -0.70536E+02 -0.39278E+03  0.46332E+03  0.10473E+03 -0.80442E+01 -0.96594E+02      298.00
  0.19314E-01  0.79368E+03   -0.11000E-01 -0.11000E-01  0.22000E-01  0.00000E+00  0.00000E+00  0.00000E+00   -0.70917E+02 -0.39541E+03  0.46633E+03  0.10496E+03 -0.81341E+01 -0.97305E+02      298.00
  0.19755E-01  0.79862E+03   -0.11250E-01 -0.11250E-01  0.22500E-01  0.00000E+00  0.00000E+00  0.00000E+00   -0.71294E+02 -0.39800E+03  0.46930E+03  0.10517E+03 -0.82261E+01 -0.98006E+02      298.00
  0.20195E-01  0.80349E+03   -0.11500E-01 -0.11500E-01  0.23000E-01  0.00000E+00  0.00000E+00  0.00000E+00   -0.71668E+02 -0.40055E+03  0.47222E+03  0.10537E+03 -0.83204E+01 -0.98696E+02      298.00
  0.20636E-01  0.80828E+03   -0.11750E-01 -0.11750E-01  0.23500E-01  0.00000E+00  0.00000E+00  0.00000E+00   -0.72040E+02 -0.40306E+03  0.47510E+03  0.10555E+03 -0.84169E+01 -0.99376E+02      298.00
  0.21077E-01  0.81299E+03   -0.12000E-01 -0.12000E-01  0.24000E-01  0.00000E+00  0.00000E+00  0.00000E+00   -0.72408E+02 -0.40553E+03  0.47794E+03  0.10571E+03 -0.85155E+01 -0.10005E+03      298.00
  0.21518E-01  0.81763E+03   -0.12250E-01 -0.12250E-01  0.24500E-01  0.00000E+00  0.00000E+00  0.00000E+00   -0.72773E+02 -0.40796E+03  0.48074E+03  0.10585E+03 -0.86162E+01 -0.10070E+03      298.00
  0.21959E-01  0.82219E+03   -0.12500E-01 -0.12500E-01  0.25000E-01  0.00000E+00  0.00000E+00  0.00000E+00   -0.73136E+02 -0.41035E+03  0.48349E+03  0.10598E+03 -0.87190E+01 -0.10135E+03      298.00
          Evm          Svm            E11          E22          E33          E23          E13          E12         SDEV11       SDEV22       SDEV33       SDEV23       SDEV13       SDEV12      TEMP
  0.21959E-01  0.82186E+03   -0.12500E-01 -0.12500E-01  0.25000E-01  0.00000E+00  0.00000E+00  0.00000E+00   -0.73059E+02 -0.41027E+03  0.48333E+03  0.10592E+03 -0.85207E+01 -0.10112E+03      298.00
  0.22400E-01  0.82668E+03   -0.12750E-01 -0.12750E-01  0.25500E-01  0.00000E+00  0.00000E+00  0.00000E+00   -0.73491E+02 -0.41272E+03  0.48621E+03  0.10609E+03 -0.88151E+01 -0.10198E+03      298.00
  0.22841E-01  0.83109E+03   -0.13000E-01 -0.13000E-01  0.26000E-01  0.00000E+00  0.00000E+00  0.00000E+00   -0.73853E+02 -0.41503E+03  0.48888E+03  0.10618E+03 -0.89302E+01 -0.10262E+03      298.00
  0.23282E-01  0.83544E+03   -0.13250E-01 -0.13250E-01  0.26500E-01  0.00000E+00  0.00000E+00  0.00000E+00   -0.74208E+02 -0.41731E+03  0.49152E+03  0.10626E+03 -0.90395E+01 -0.10324E+03      298.00
  0.23723E-01  0.83971E+03   -0.13500E-01 -0.13500E-01  0.27000E-01  0.00000E+00  0.00000E+00  0.00000E+00   -0.74560E+02 -0.41955E+03  0.49411E+03  0.10632E+03 -0.91504E+01 -0.10385E+03      298.00
  0.24165E-01  0.84411E+03   -0.13750E-01 -0.13750E-01  0.27500E-01  0.00000E+00  0.00000E+00  0.00000E+00   -0.74938E+02 -0.42183E+03  0.49677E+03  0.10640E+03 -0.93268E+01 -0.10455E+03      298.00
  0.24606E-01  0.84806E+03   -0.14000E-01 -0.14000E-01  0.28000E-01  0.00000E+00  0.00000E+00  0.00000E+00   -0.75260E+02 -0.42393E+03  0.49919E+03  0.10640E+03 -0.93849E+01 -0.10505E+03      298.00
  0.25048E-01  0.85231E+03   -0.14250E-01 -0.14250E-01  0.28500E-01  0.00000E+00  0.00000E+00  0.00000E+00   -0.75632E+02 -0.42614E+03  0.50177E+03  0.10645E+03 -0.95626E+01 -0.10572E+03      298.00
  0.25489E-01  0.85614E+03   -0.14500E-01 -0.14500E-01  0.29000E-01  0.00000E+00  0.00000E+00  0.00000E+00   -0.75950E+02 -0.42818E+03  0.50413E+03  0.10642E+03 -0.96239E+01 -0.10621E+03      298.00
  0.25931E-01  0.86026E+03   -0.14750E-01 -0.14750E-01  0.29500E-01  0.00000E+00  0.00000E+00  0.00000E+00   -0.76317E+02 -0.43031E+03  0.50663E+03  0.10643E+03 -0.98056E+01 -0.10687E+03      298.00
  0.26372E-01  0.86414E+03   -0.15000E-01 -0.15000E-01  0.30000E-01  0.00000E+00  0.00000E+00  0.00000E+00   -0.76659E+02 -0.43235E+03  0.50901E+03  0.10641E+03 -0.99365E+01 -0.10743E+03      298.00
  0.26814E-01  0.86795E+03   -0.15250E-01 -0.15250E-01  0.30500E-01  0.00000E+00  0.00000E+00  0.00000E+00   -0.76997E+02 -0.43435E+03  0.51135E+03  0.10637E+03 -0.10066E+02 -0.10798E+03      298.00
  0.27256E-01  0.87170E+03   -0.15500E-01 -0.15500E-01  0.31000E-01  0.00000E+00  0.00000E+00  0.00000E+00   -0.77334E+02 -0.43633E+03  0.51366E+03  0.10631E+03 -0.10197E+02 -0.10853E+03      298.00
  0.27698E-01  0.87523E+03   -0.15750E-01 -0.15750E-01  0.31500E-01  0.00000E+00  0.00000E+00  0.00000E+00   -0.77638E+02 -0.43821E+03  0.51585E+03  0.10622E+03 -0.10260E+02 -0.10897E+03      298.00
  0.28140E-01  0.87902E+03   -0.16000E-01 -0.16000E-01  0.32000E-01  0.00000E+00  0.00000E+00  0.00000E+00   -0.77995E+02 -0.44018E+03  0.51817E+03  0.10617E+03 -0.10453E+02 -0.10958E+03      298.00
  0.28582E-01  0.88260E+03   -0.16250E-01 -0.16250E-01  0.32500E-01  0.00000E+00  0.00000E+00  0.00000E+00   -0.78327E+02 -0.44206E+03  0.52039E+03  0.10607E+03 -0.10593E+02 -0.11011E+03      298.00
  0.29024E-01  0.88596E+03   -0.16500E-01 -0.16500E-01  0.33000E-01  0.00000E+00  0.00000E+00  0.00000E+00   -0.78625E+02 -0.44386E+03  0.52248E+03  0.10595E+03 -0.10659E+02 -0.11052E+03      298.00
  0.29467E-01  0.88958E+03   -0.16750E-01 -0.16750E-01  0.33500E-01  0.00000E+00  0.00000E+00  0.00000E+00   -0.78976E+02 -0.44573E+03  0.52471E+03  0.10585E+03 -0.10858E+02 -0.11111E+03      298.00
  0.29909E-01  0.89299E+03   -0.17000E-01 -0.17000E-01  0.34000E-01  0.00000E+00  0.00000E+00  0.00000E+00   -0.79302E+02 -0.44752E+03  0.52682E+03  0.10572E+03 -0.11003E+02 -0.11161E+03      298.00
  0.30352E-01  0.89618E+03   -0.17250E-01 -0.17250E-01  0.34500E-01  0.00000E+00  0.00000E+00  0.00000E+00   -0.79593E+02 -0.44924E+03  0.52883E+03  0.10556E+03 -0.11070E+02 -0.11200E+03      298.00
  0.30794E-01  0.89963E+03   -0.17500E-01 -0.17500E-01  0.35000E-01  0.00000E+00  0.00000E+00  0.00000E+00   -0.79939E+02 -0.45102E+03  0.53096E+03  0.10542E+03 -0.11276E+02 -0.11257E+03      298.00
  0.31237E-01  0.90288E+03   -0.17750E-01 -0.17750E-01  0.35500E-01  0.00000E+00  0.00000E+00  0.00000E+00   -0.80258E+02 -0.45273E+03  0.53299E+03  0.10526E+03 -0.11423E+02 -0.11304E+03      298.00
  0.31679E-01  0.90607E+03   -0.18000E-01 -0.18000E-01  0.36000E-01  0.00000E+00  0.00000E+00  0.00000E+00   -0.80573E+02 -0.45441E+03  0.53499E+03  0.10508E+03 -0.11567E+02 -0.11351E+03      298.00
  0.32122E-01  0.90921E+03   -0.18250E-01 -0.18250E-01  0.36500E-01  0.00000E+00  0.00000E+00  0.00000E+00   -0.80885E+02 -0.45607E+03  0.53695E+03  0.10489E+03 -0.11709E+02 -0.11396E+03      298.00
  0.32565E-01  0.91230E+03   -0.18500E-01 -0.18500E-01  0.37000E-01  0.00000E+00  0.00000E+00  0.00000E+00   -0.81195E+02 -0.45770E+03  0.53889E+03  0.10469E+03 -0.11851E+02 -0.11441E+03      298.00
  0.33008E-01  0.91534E+03   -0.18750E-01 -0.18750E-01  0.37500E-01  0.00000E+00  0.00000E+00  0.00000E+00   -0.81501E+02 -0.45931E+03  0.54081E+03  0.10448E+03 -0.11990E+02 -0.11484E+03      298.00
  0.33451E-01  0.91834E+03   -0.19000E-01 -0.19000E-01  0.38000E-01  0.00000E+00  0.00000E+00  0.00000E+00   -0.81803E+02 -0.46089E+03  0.54269E+03  0.10426E+03 -0.12128E+02 -0.11526E+03      298.00
  0.33895E-01  0.92128E+03   -0.19250E-01 -0.19250E-01  0.38500E-01  0.00000E+00  0.00000E+00  0.00000E+00   -0.82102E+02 -0.46245E+03  0.54455E+03  0.10403E+03 -0.12263E+02 -0.11568E+03      298.00
  0.34338E-01  0.92417E+03   -0.19500E-01 -0.19500E-01  0.39000E-01  0.00000E+00  0.00000E+00  0.00000E+00   -0.82397E+02 -0.46398E+03  0.54638E+03  0.10378E+03 -0.12395E+02 -0.11608E+03      298.00
  0.34781E-01  0.92702E+03   -0.19750E-01 -0.19750E-01  0.39500E-01  0.00000E+00  0.00000E+00  0.00000E+00   -0.82689E+02 -0.46550E+03  0.54819E+03  0.10353E+03 -0.12527E+02 -0.11647E+03      298.00
  0.35225E-01  0.92970E+03   -0.20000E-01 -0.20000E-01  0.40000E-01  0.00000E+00  0.00000E+00  0.00000E+00   -0.83036E+02 -0.46685E+03  0.54989E+03  0.10328E+03 -0.12736E+02 -0.11694E+03      298.00
  0.35668E-01  0.93246E+03   -0.20250E-01 -0.20250E-01  0.40500E-01  0.00000E+00  0.00000E+00  0.00000E+00   -0.83319E+02 -0.46833E+03  0.55164E+03  0.10300E+03 -0.12858E+02 -0.11730E+03      298.00
  0.36112E-01  0.93517E+03   -0.20500E-01 -0.20500E-01  0.41000E-01  0.00000E+00  0.00000E+00  0.00000E+00   -0.83599E+02 -0.46977E+03  0.55337E+03  0.10272E+03 -0.12979E+02 -0.11766E+03      298.00
  0.36556E-01  0.93749E+03   -0.20750E-01 -0.20750E-01  0.41500E-01  0.00000E+00  0.00000E+00  0.00000E+00   -0.83944E+02 -0.47093E+03  0.55488E+03  0.10242E+03 -0.13163E+02 -0.11806E+03      298.00
  0.37000E-01  0.94012E+03   -0.21000E-01 -0.21000E-01  0.42000E-01  0.00000E+00  0.00000E+00  0.00000E+00   -0.84233E+02 -0.47233E+03  0.55656E+03  0.10212E+03 -0.13308E+02 -0.11843E+03      298.00
  0.37444E-01  0.94272E+03   -0.21250E-01 -0.21250E-01  0.42500E-01  0.00000E+00  0.00000E+00  0.00000E+00   -0.84521E+02 -0.47370E+03  0.55823E+03  0.10182E+03 -0.13456E+02 -0.11880E+03      298.00
  0.37888E-01  0.94528E+03   -0.21500E-01 -0.21500E-01  0.43000E-01  0.00000E+00  0.00000E+00  0.00000E+00   -0.84813E+02 -0.47505E+03  0.55986E+03  0.10150E+03 -0.13619E+02 -0.11918E+03      298.00
  0.38332E-01  0.94780E+03   -0.21750E-01 -0.21750E-01  0.43500E-01  0.00000E+00  0.00000E+00  0.00000E+00   -0.85112E+02 -0.47637E+03  0.56148E+03  0.10118E+03 -0.13798E+02 -0.11956E+03      298.00
  0.38776E-01  0.95028E+03   -0.22000E-01 -0.22000E-01  0.44000E-01  0.00000E+00  0.00000E+00  0.00000E+00   -0.85414E+02 -0.47766E+03  0.56308E+03  0.10086E+03 -0.13991E+02 -0.11996E+03      298.00
  0.39221E-01  0.95303E+03   -0.22250E-01 -0.22250E-01  0.44500E-01  0.00000E+00  0.00000E+00  0.00000E+00   -0.85650E+02 -0.47917E+03  0.56482E+03  0.10052E+03 -0.14123E+02 -0.12028E+03      298.00
  0.39665E-01  0.95543E+03   -0.22500E-01 -0.22500E-01  0.45000E-01  0.00000E+00  0.00000E+00  0.00000E+00   -0.85954E+02 -0.48041E+03  0.56637E+03  0.10018E+03 -0.14327E+02 -0.12067E+03      298.00
  0.40110E-01  0.95822E+03   -0.22750E-01 -0.22750E-01  0.45500E-01  0.00000E+00  0.00000E+00  0.00000E+00   -0.86152E+02 -0.48199E+03  0.56814E+03  0.99814E+02 -0.14425E+02 -0.12095E+03      298.00
  0.40555E-01  0.96049E+03   -0.23000E-01 -0.23000E-01  0.46000E-01  0.00000E+00  0.00000E+00  0.00000E+00   -0.86431E+02 -0.48319E+03  0.56962E+03  0.99445E+02 -0.14577E+02 -0.12127E+03      298.00
  0.40999E-01  0.96276E+03   -0.23250E-01 -0.23250E-01  0.46500E-01  0.00000E+00  0.00000E+00  0.00000E+00   -0.86707E+02 -0.48439E+03  0.57110E+03  0.99070E+02 -0.14735E+02 -0.12159E+03      298.00
  0.41444E-01  0.96499E+03   -0.23500E-01 -0.23500E-01  0.47000E-01  0.00000E+00  0.00000E+00  0.00000E+00   -0.86980E+02 -0.48557E+03  0.57255E+03  0.98687E+02 -0.14893E+02 -0.12190E+03      298.00
  0.41889E-01  0.96719E+03   -0.23750E-01 -0.23750E-01  0.47500E-01  0.00000E+00  0.00000E+00  0.00000E+00   -0.87252E+02 -0.48674E+03  0.57399E+03  0.98296E+02 -0.15050E+02 -0.12221E+03      298.00
  0.42334E-01  0.96935E+03   -0.24000E-01 -0.24000E-01  0.48000E-01  0.00000E+00  0.00000E+00  0.00000E+00   -0.87520E+02 -0.48788E+03  0.57541E+03  0.97898E+02 -0.15206E+02 -0.12251E+03      298.00
