          Evm          Svm            E11          E22          E33          E23          E13          E12         SDEV11       SDEV22       SDEV33       SDEV23       SDEV13       SDEV12      TEMP
  0.00000E+00  0.46614E+03    0.00000E+00  0.00000E+00  0.00000E+00  0.00000E+00  0.00000E+00  0.00000E+00   -0.23858E+03 -0.43003E+02  0.28158E+03 -0.10745E+02  0.56894E+01 -0.57032E+02      298.00
  0.45305E-03  0.47662E+03   -0.25000E-03 -0.25000E-03  0.50000E-03  0.00000E+00  0.00000E+00  0.00000E+00   -0.24213E+03 -0.46752E+02  0.28888E+03 -0.12880E+02  0.58882E+01 -0.58211E+02      298.00
  0.90763E-03  0.48690E+03   -0.50000E-03 -0.50000E-03  0.10000E-02  0.00000E+00  0.00000E+00  0.00000E+00   -0.24591E+03 -0.49982E+02  0.29589E+03 -0.14601E+02  0.59583E+01 -0.59271E+02      298.00
  0.13634E-02  0.49680E+03   -0.75000E-03 -0.75000E-03  0.15000E-02  0.00000E+00  0.00000E+00  0.00000E+00   -0.24968E+03 -0.52859E+02  0.30254E+03 -0.16140E+02  0.59820E+01 -0.60348E+02      298.00
  0.18201E-02  0.50661E+03   -0.10000E-02 -0.10000E-02  0.20000E-02  0.00000E+00  0.00000E+00  0.00000E+00   -0.25361E+03 -0.55398E+02  0.30901E+03 -0.17476E+02  0.59290E+01 -0.61427E+02      298.00
  0.22776E-02  0.51620E+03   -0.12500E-02 -0.12500E-02  0.25000E-02  0.00000E+00  0.00000E+00  0.00000E+00   -0.25759E+03 -0.57665E+02  0.31525E+03 -0.18668E+02  0.58295E+01 -0.62510E+02      298.00
  0.27357E-02  0.52569E+03   -0.15000E-02 -0.15000E-02  0.30000E-02  0.00000E+00  0.00000E+00  0.00000E+00   -0.26169E+03 -0.59664E+02  0.32136E+03 -0.19675E+02  0.56610E+01 -0.63563E+02      298.00
  0.31941E-02  0.53491E+03   -0.17500E-02 -0.17500E-02  0.35000E-02  0.00000E+00  0.00000E+00  0.00000E+00   -0.26577E+03 -0.61475E+02  0.32724E+03 -0.20595E+02  0.54758E+01 -0.64605E+02      298.00
  0.36530E-02  0.54411E+03   -0.20000E-02 -0.20000E-02  0.40000E-02  0.00000E+00  0.00000E+00  0.00000E+00   -0.26992E+03 -0.63124E+02  0.33305E+03 -0.21462E+02  0.52551E+01 -0.65697E+02      298.00
  0.41120E-02  0.55298E+03   -0.22500E-02 -0.22500E-02  0.45000E-02  0.00000E+00  0.00000E+00  0.00000E+00   -0.27405E+03 -0.64567E+02  0.33862E+03 -0.22138E+02  0.49852E+01 -0.66661E+02      298.00
  0.45713E-02  0.56177E+03   -0.25000E-02 -0.25000E-02  0.50000E-02  0.00000E+00  0.00000E+00  0.00000E+00   -0.27819E+03 -0.65914E+02  0.34410E+03 -0.22824E+02  0.47090E+01 -0.67683E+02      298.00
  0.50307E-02  0.57024E+03   -0.27500E-02 -0.27500E-02  0.55000E-02  0.00000E+00  0.00000E+00  0.00000E+00   -0.28220E+03 -0.67163E+02  0.34937E+03 -0.23476E+02  0.44421E+01 -0.68667E+02      298.00
  0.54902E-02  0.57864E+03   -0.30000E-02 -0.30000E-02  0.60000E-02  0.00000E+00  0.00000E+00  0.00000E+00   -0.28628E+03 -0.68286E+02  0.35456E+03 -0.24036E+02  0.41217E+01 -0.69634E+02      298.00
  0.59498E-02  0.58667E+03   -0.32500E-02 -0.32500E-02  0.65000E-02  0.00000E+00  0.00000E+00  0.00000E+00   -0.29019E+03 -0.69328E+02  0.35952E+03 -0.24546E+02  0.38141E+01 -0.70526E+02      298.00
  0.64094E-02  0.59500E+03   -0.35000E-02 -0.35000E-02  0.70000E-02  0.00000E+00  0.00000E+00  0.00000E+00   -0.29437E+03 -0.70242E+02  0.36462E+03 -0.24956E+02  0.33989E+01 -0.71467E+02      298.00
  0.68690E-02  0.60330E+03   -0.37500E-02 -0.37500E-02  0.75000E-02  0.00000E+00  0.00000E+00  0.00000E+00   -0.29858E+03 -0.71088E+02  0.36966E+03 -0.25342E+02  0.29563E+01 -0.72418E+02      298.00
  0.73285E-02  0.61113E+03   -0.40000E-02 -0.40000E-02  0.80000E-02  0.00000E+00  0.00000E+00  0.00000E+00   -0.30254E+03 -0.71899E+02  0.37444E+03 -0.25722E+02  0.25519E+01 -0.73290E+02      298.00
  0.77881E-02  0.61885E+03   -0.42500E-02 -0.42500E-02  0.85000E-02  0.00000E+00  0.00000E+00  0.00000E+00   -0.30648E+03 -0.72657E+02  0.37913E+03 -0.26076E+02  0.21274E+01 -0.74155E+02      298.00
  0.82475E-02  0.62553E+03   -0.45000E-02 -0.45000E-02  0.90000E-02  0.00000E+00  0.00000E+00  0.00000E+00   -0.30982E+03 -0.73429E+02  0.38325E+03 -0.26447E+02  0.18418E+01 -0.74813E+02      298.00
  0.87070E-02  0.63390E+03   -0.47500E-02 -0.47500E-02  0.95000E-02  0.00000E+00  0.00000E+00  0.00000E+00   -0.31417E+03 -0.74081E+02  0.38825E+03 -0.26804E+02  0.12662E+01 -0.75891E+02      298.00
  0.91664E-02  0.64121E+03   -0.50000E-02 -0.50000E-02  0.10000E-01  0.00000E+00  0.00000E+00  0.00000E+00   -0.31789E+03 -0.74779E+02  0.39267E+03 -0.27214E+02  0.87028E+00 -0.76736E+02      298.00
  0.96257E-02  0.64785E+03   -0.52500E-02 -0.52500E-02  0.10500E-01  0.00000E+00  0.00000E+00  0.00000E+00   -0.32124E+03 -0.75460E+02  0.39670E+03 -0.27607E+02  0.49834E+00 -0.77517E+02      298.00
  0.10085E-01  0.65553E+03   -0.55000E-02 -0.55000E-02  0.11000E-01  0.00000E+00  0.00000E+00  0.00000E+00   -0.32530E+03 -0.75997E+02  0.40130E+03 -0.27857E+02 -0.67042E-01 -0.78376E+02      298.00
  0.10544E-01  0.66164E+03   -0.57500E-02 -0.57500E-02  0.11500E-01  0.00000E+00  0.00000E+00  0.00000E+00   -0.32854E+03 -0.76505E+02  0.40504E+03 -0.27949E+02 -0.50005E+00 -0.78834E+02      298.00
  0.11003E-01  0.66851E+03   -0.60000E-02 -0.60000E-02  0.12000E-01  0.00000E+00  0.00000E+00  0.00000E+00   -0.33219E+03 -0.76990E+02  0.40918E+03 -0.28123E+02 -0.10425E+01 -0.79533E+02      298.00
  0.11462E-01  0.67612E+03   -0.62500E-02 -0.62500E-02  0.12500E-01  0.00000E+00  0.00000E+00  0.00000E+00   -0.33620E+03 -0.77485E+02  0.41369E+03 -0.28447E+02 -0.16662E+01 -0.80497E+02      298.00
  0.11921E-01  0.68276E+03   -0.65000E-02 -0.65000E-02  0.13000E-01  0.00000E+00  0.00000E+00  0.00000E+00   -0.33969E+03 -0.77987E+02  0.41767E+03 -0.28714E+02 -0.21899E+01 -0.81235E+02      298.00
  0.12380E-01  0.68852E+03   -0.67500E-02 -0.67500E-02  0.13500E-01  0.00000E+00  0.00000E+00  0.00000E+00   -0.34270E+03 -0.78478E+02  0.42118E+03 -0.28905E+02 -0.26288E+01 -0.81748E+02      298.00
  0.12839E-01  0.69497E+03   -0.70000E-02 -0.70000E-02  0.14000E-01  0.00000E+00  0.00000E+00  0.00000E+00   -0.34608E+03 -0.78957E+02  0.42504E+03 -0.29181E+02 -0.31653E+01 -0.82473E+02      298.00
  0.13297E-01  0.70132E+03   -0.72500E-02 -0.72500E-02  0.14500E-01  0.00000E+00  0.00000E+00  0.00000E+00   -0.34941E+03 -0.79427E+02  0.42884E+03 -0.29463E+02 -0.37089E+01 -0.83190E+02      298.00
  0.13756E-01  0.70757E+03   -0.75000E-02 -0.75000E-02  0.15000E-01  0.00000E+00  0.00000E+00  0.00000E+00   -0.35269E+03 -0.79886E+02  0.43257E+03 -0.29743E+02 -0.42607E+01 -0.83894E+02      298.00
  0.14215E-01  0.71372E+03   -0.77500E-02 -0.77500E-02  0.15500E-01  0.00000E+00  0.00000E+00  0.00000E+00   -0.35591E+03 -0.80334E+02  0.43625E+03 -0.30021E+02 -0.48208E+01 -0.84585E+02      298.00
  0.14673E-01  0.71977E+03   -0.80000E-02 -0.80000E-02  0.16000E-01  0.00000E+00  0.00000E+00  0.00000E+00   -0.35909E+03 -0.80772E+02  0.43986E+03 -0.30298E+02 -0.53892E+01 -0.85262E+02      298.00
  0.15131E-01  0.72572E+03   -0.82500E-02 -0.82500E-02  0.16500E-01  0.00000E+00  0.00000E+00  0.00000E+00   -0.36221E+03 -0.81202E+02  0.44341E+03 -0.30573E+02 -0.59654E+01 -0.85927E+02      298.00
  0.15590E-01  0.73158E+03   -0.85000E-02 -0.85000E-02  0.17000E-01  0.00000E+00  0.00000E+00  0.00000E+00   -0.36529E+03 -0.81623E+02  0.44691E+03 -0.30848E+02 -0.65493E+01 -0.86577E+02      298.00
  0.16048E-01  0.73734E+03   -0.87500E-02 -0.87500E-02  0.17500E-01  0.00000E+00  0.00000E+00  0.00000E+00   -0.36831E+03 -0.82036E+02  0.45035E+03 -0.31122E+02 -0.71405E+01 -0.87216E+02      298.00
  0.16506E-01  0.74302E+03   -0.90000E-02 -0.90000E-02  0.18000E-01  0.00000E+00  0.00000E+00  0.00000E+00   -0.37129E+03 -0.82443E+02  0.45373E+03 -0.31396E+02 -0.77388E+01 -0.87841E+02      298.00
  0.16964E-01  0.74936E+03   -0.92500E-02 -0.92500E-02  0.18500E-01  0.00000E+00  0.00000E+00  0.00000E+00   -0.37474E+03 -0.82726E+02  0.45746E+03 -0.31513E+02 -0.85576E+01 -0.88554E+02      298.00
  0.17422E-01  0.75483E+03   -0.95000E-02 -0.95000E-02  0.19000E-01  0.00000E+00  0.00000E+00  0.00000E+00   -0.37761E+03 -0.83112E+02  0.46073E+03 -0.31769E+02 -0.91706E+01 -0.89131E+02      298.00
  0.17879E-01  0.76023E+03   -0.97500E-02 -0.97500E-02  0.19500E-01  0.00000E+00  0.00000E+00  0.00000E+00   -0.38043E+03 -0.83512E+02  0.46395E+03 -0.32068E+02 -0.97824E+01 -0.89737E+02      298.00
  0.18337E-01  0.76555E+03   -0.10000E-01 -0.10000E-01  0.20000E-01  0.00000E+00  0.00000E+00  0.00000E+00   -0.38320E+03 -0.83915E+02  0.46711E+03 -0.32385E+02 -0.10395E+02 -0.90346E+02      298.00
  0.18795E-01  0.77079E+03   -0.10250E-01 -0.10250E-01  0.20500E-01  0.00000E+00  0.00000E+00  0.00000E+00   -0.38591E+03 -0.84317E+02  0.47023E+03 -0.32711E+02 -0.11011E+02 -0.90950E+02      298.00
  0.19252E-01  0.77595E+03   -0.10500E-01 -0.10500E-01  0.21000E-01  0.00000E+00  0.00000E+00  0.00000E+00   -0.38858E+03 -0.84717E+02  0.47330E+03 -0.33043E+02 -0.11631E+02 -0.91547E+02      298.00
  0.19710E-01  0.78102E+03   -0.10750E-01 -0.10750E-01  0.21500E-01  0.00000E+00  0.00000E+00  0.00000E+00   -0.39120E+03 -0.85110E+02  0.47631E+03 -0.33373E+02 -0.12259E+02 -0.92131E+02      298.00
  0.20167E-01  0.78601E+03   -0.11000E-01 -0.11000E-01  0.22000E-01  0.00000E+00  0.00000E+00  0.00000E+00   -0.39380E+03 -0.85483E+02  0.47928E+03 -0.33676E+02 -0.12903E+02 -0.92682E+02      298.00
  0.20625E-01  0.79091E+03   -0.11250E-01 -0.11250E-01  0.22500E-01  0.00000E+00  0.00000E+00  0.00000E+00   -0.39642E+03 -0.85782E+02  0.48220E+03 -0.33835E+02 -0.13599E+02 -0.93111E+02      298.00
  0.21082E-01  0.79560E+03   -0.11500E-01 -0.11500E-01  0.23000E-01  0.00000E+00  0.00000E+00  0.00000E+00   -0.39890E+03 -0.86122E+02  0.48502E+03 -0.34060E+02 -0.14213E+02 -0.93485E+02      298.00
  0.21539E-01  0.79972E+03   -0.11750E-01 -0.11750E-01  0.23500E-01  0.00000E+00  0.00000E+00  0.00000E+00   -0.40097E+03 -0.86542E+02  0.48752E+03 -0.34401E+02 -0.14730E+02 -0.93879E+02      298.00
  0.21996E-01  0.80515E+03   -0.12000E-01 -0.12000E-01  0.24000E-01  0.00000E+00  0.00000E+00  0.00000E+00   -0.40392E+03 -0.86762E+02  0.49068E+03 -0.34532E+02 -0.15638E+02 -0.94487E+02      298.00
  0.22453E-01  0.80960E+03   -0.12250E-01 -0.12250E-01  0.24500E-01  0.00000E+00  0.00000E+00  0.00000E+00   -0.40621E+03 -0.87140E+02  0.49335E+03 -0.34854E+02 -0.16231E+02 -0.94898E+02      298.00
  0.22910E-01  0.81350E+03   -0.12500E-01 -0.12500E-01  0.25000E-01  0.00000E+00  0.00000E+00  0.00000E+00   -0.40820E+03 -0.87525E+02  0.49572E+03 -0.35143E+02 -0.16781E+02 -0.95227E+02      298.00
          Evm          Svm            E11          E22          E33          E23          E13          E12         SDEV11       SDEV22       SDEV33       SDEV23       SDEV13       SDEV12      TEMP
  0.22910E-01  0.81391E+03   -0.12500E-01 -0.12500E-01  0.25000E-01  0.00000E+00  0.00000E+00  0.00000E+00   -0.40832E+03 -0.87593E+02  0.49592E+03 -0.35351E+02 -0.16812E+02 -0.95500E+02      298.00
  0.23367E-01  0.81796E+03   -0.12750E-01 -0.12750E-01  0.25500E-01  0.00000E+00  0.00000E+00  0.00000E+00   -0.41050E+03 -0.87870E+02  0.49837E+03 -0.35447E+02 -0.17458E+02 -0.95698E+02      298.00
  0.23824E-01  0.82233E+03   -0.13000E-01 -0.13000E-01  0.26000E-01  0.00000E+00  0.00000E+00  0.00000E+00   -0.41275E+03 -0.88213E+02  0.50097E+03 -0.35751E+02 -0.18134E+02 -0.96153E+02      298.00
  0.24281E-01  0.82664E+03   -0.13250E-01 -0.13250E-01  0.26500E-01  0.00000E+00  0.00000E+00  0.00000E+00   -0.41497E+03 -0.88557E+02  0.50353E+03 -0.36066E+02 -0.18815E+02 -0.96609E+02      298.00
  0.24738E-01  0.83088E+03   -0.13500E-01 -0.13500E-01  0.27000E-01  0.00000E+00  0.00000E+00  0.00000E+00   -0.41715E+03 -0.88896E+02  0.50605E+03 -0.36380E+02 -0.19499E+02 -0.97053E+02      298.00
  0.25195E-01  0.83506E+03   -0.13750E-01 -0.13750E-01  0.27500E-01  0.00000E+00  0.00000E+00  0.00000E+00   -0.41929E+03 -0.89232E+02  0.50852E+03 -0.36693E+02 -0.20189E+02 -0.97487E+02      298.00
  0.25651E-01  0.83985E+03   -0.14000E-01 -0.14000E-01  0.28000E-01  0.00000E+00  0.00000E+00  0.00000E+00   -0.42189E+03 -0.89422E+02  0.51131E+03 -0.36826E+02 -0.21122E+02 -0.97982E+02      298.00
  0.26108E-01  0.84321E+03   -0.14250E-01 -0.14250E-01  0.28500E-01  0.00000E+00  0.00000E+00  0.00000E+00   -0.42357E+03 -0.89800E+02  0.51337E+03 -0.37124E+02 -0.21651E+02 -0.98189E+02      298.00
  0.26565E-01  0.84716E+03   -0.14500E-01 -0.14500E-01  0.29000E-01  0.00000E+00  0.00000E+00  0.00000E+00   -0.42559E+03 -0.90129E+02  0.51572E+03 -0.37441E+02 -0.22344E+02 -0.98587E+02      298.00
  0.27021E-01  0.85107E+03   -0.14750E-01 -0.14750E-01  0.29500E-01  0.00000E+00  0.00000E+00  0.00000E+00   -0.42758E+03 -0.90456E+02  0.51804E+03 -0.37762E+02 -0.23045E+02 -0.98985E+02      298.00
  0.27478E-01  0.85491E+03   -0.15000E-01 -0.15000E-01  0.30000E-01  0.00000E+00  0.00000E+00  0.00000E+00   -0.42954E+03 -0.90779E+02  0.52032E+03 -0.38083E+02 -0.23749E+02 -0.99374E+02      298.00
  0.27934E-01  0.85870E+03   -0.15250E-01 -0.15250E-01  0.30500E-01  0.00000E+00  0.00000E+00  0.00000E+00   -0.43146E+03 -0.91100E+02  0.52256E+03 -0.38404E+02 -0.24458E+02 -0.99754E+02      298.00
  0.28391E-01  0.86242E+03   -0.15500E-01 -0.15500E-01  0.31000E-01  0.00000E+00  0.00000E+00  0.00000E+00   -0.43335E+03 -0.91417E+02  0.52477E+03 -0.38725E+02 -0.25170E+02 -0.10012E+03      298.00
  0.28847E-01  0.86608E+03   -0.15750E-01 -0.15750E-01  0.31500E-01  0.00000E+00  0.00000E+00  0.00000E+00   -0.43520E+03 -0.91731E+02  0.52694E+03 -0.39046E+02 -0.25885E+02 -0.10049E+03      298.00
  0.29303E-01  0.86968E+03   -0.16000E-01 -0.16000E-01  0.32000E-01  0.00000E+00  0.00000E+00  0.00000E+00   -0.43703E+03 -0.92042E+02  0.52907E+03 -0.39367E+02 -0.26603E+02 -0.10084E+03      298.00
  0.29760E-01  0.87303E+03   -0.16250E-01 -0.16250E-01  0.32500E-01  0.00000E+00  0.00000E+00  0.00000E+00   -0.43877E+03 -0.92296E+02  0.53107E+03 -0.39547E+02 -0.27340E+02 -0.10106E+03      298.00
  0.30216E-01  0.87672E+03   -0.16500E-01 -0.16500E-01  0.33000E-01  0.00000E+00  0.00000E+00  0.00000E+00   -0.44067E+03 -0.92576E+02  0.53324E+03 -0.39843E+02 -0.28111E+02 -0.10141E+03      298.00
  0.30672E-01  0.88014E+03   -0.16750E-01 -0.16750E-01  0.33500E-01  0.00000E+00  0.00000E+00  0.00000E+00   -0.44239E+03 -0.92880E+02  0.53527E+03 -0.40164E+02 -0.28834E+02 -0.10173E+03      298.00
  0.31128E-01  0.88351E+03   -0.17000E-01 -0.17000E-01  0.34000E-01  0.00000E+00  0.00000E+00  0.00000E+00   -0.44408E+03 -0.93183E+02  0.53726E+03 -0.40489E+02 -0.29561E+02 -0.10205E+03      298.00
  0.31584E-01  0.88683E+03   -0.17250E-01 -0.17250E-01  0.34500E-01  0.00000E+00  0.00000E+00  0.00000E+00   -0.44574E+03 -0.93484E+02  0.53923E+03 -0.40816E+02 -0.30290E+02 -0.10236E+03      298.00
  0.32040E-01  0.89010E+03   -0.17500E-01 -0.17500E-01  0.35000E-01  0.00000E+00  0.00000E+00  0.00000E+00   -0.44737E+03 -0.93783E+02  0.54116E+03 -0.41144E+02 -0.31022E+02 -0.10267E+03      298.00
  0.32496E-01  0.89331E+03   -0.17750E-01 -0.17750E-01  0.35500E-01  0.00000E+00  0.00000E+00  0.00000E+00   -0.44898E+03 -0.94079E+02  0.54306E+03 -0.41471E+02 -0.31757E+02 -0.10297E+03      298.00
  0.32952E-01  0.89647E+03   -0.18000E-01 -0.18000E-01  0.36000E-01  0.00000E+00  0.00000E+00  0.00000E+00   -0.45055E+03 -0.94373E+02  0.54492E+03 -0.41800E+02 -0.32493E+02 -0.10326E+03      298.00
  0.33408E-01  0.89958E+03   -0.18250E-01 -0.18250E-01  0.36500E-01  0.00000E+00  0.00000E+00  0.00000E+00   -0.45209E+03 -0.94665E+02  0.54676E+03 -0.42129E+02 -0.33232E+02 -0.10354E+03      298.00
  0.33864E-01  0.90264E+03   -0.18500E-01 -0.18500E-01  0.37000E-01  0.00000E+00  0.00000E+00  0.00000E+00   -0.45361E+03 -0.94954E+02  0.54856E+03 -0.42458E+02 -0.33972E+02 -0.10382E+03      298.00
  0.34320E-01  0.90532E+03   -0.18750E-01 -0.18750E-01  0.37500E-01  0.00000E+00  0.00000E+00  0.00000E+00   -0.45494E+03 -0.95230E+02  0.55017E+03 -0.42702E+02 -0.34666E+02 -0.10396E+03      298.00
  0.34775E-01  0.90861E+03   -0.19000E-01 -0.19000E-01  0.38000E-01  0.00000E+00  0.00000E+00  0.00000E+00   -0.45659E+03 -0.95498E+02  0.55209E+03 -0.43058E+02 -0.35482E+02 -0.10431E+03      298.00
  0.35231E-01  0.91152E+03   -0.19250E-01 -0.19250E-01  0.38500E-01  0.00000E+00  0.00000E+00  0.00000E+00   -0.45802E+03 -0.95782E+02  0.55380E+03 -0.43389E+02 -0.36227E+02 -0.10457E+03      298.00
  0.35687E-01  0.91407E+03   -0.19500E-01 -0.19500E-01  0.39000E-01  0.00000E+00  0.00000E+00  0.00000E+00   -0.45929E+03 -0.96046E+02  0.55533E+03 -0.43622E+02 -0.36932E+02 -0.10468E+03      298.00
  0.36143E-01  0.91721E+03   -0.19750E-01 -0.19750E-01  0.39500E-01  0.00000E+00  0.00000E+00  0.00000E+00   -0.46084E+03 -0.96320E+02  0.55716E+03 -0.44006E+02 -0.37743E+02 -0.10503E+03      298.00
  0.36598E-01  0.91998E+03   -0.20000E-01 -0.20000E-01  0.40000E-01  0.00000E+00  0.00000E+00  0.00000E+00   -0.46219E+03 -0.96600E+02  0.55879E+03 -0.44340E+02 -0.38492E+02 -0.10527E+03      298.00
  0.37054E-01  0.92373E+03   -0.20250E-01 -0.20250E-01  0.40500E-01  0.00000E+00  0.00000E+00  0.00000E+00   -0.46403E+03 -0.96862E+02  0.56090E+03 -0.44852E+02 -0.39442E+02 -0.10584E+03      298.00
  0.37509E-01  0.92635E+03   -0.20500E-01 -0.20500E-01  0.41000E-01  0.00000E+00  0.00000E+00  0.00000E+00   -0.46530E+03 -0.97139E+02  0.56244E+03 -0.45183E+02 -0.40186E+02 -0.10606E+03      298.00
  0.37964E-01  0.92898E+03   -0.20750E-01 -0.20750E-01  0.41500E-01  0.00000E+00  0.00000E+00  0.00000E+00   -0.46657E+03 -0.97411E+02  0.56398E+03 -0.45518E+02 -0.40942E+02 -0.10628E+03      298.00
  0.38420E-01  0.93137E+03   -0.21000E-01 -0.21000E-01  0.42000E-01  0.00000E+00  0.00000E+00  0.00000E+00   -0.46769E+03 -0.97734E+02  0.56543E+03 -0.45867E+02 -0.41607E+02 -0.10637E+03      298.00
  0.38875E-01  0.93369E+03   -0.21250E-01 -0.21250E-01  0.42500E-01  0.00000E+00  0.00000E+00  0.00000E+00   -0.46877E+03 -0.98001E+02  0.56677E+03 -0.46206E+02 -0.42349E+02 -0.10664E+03      298.00
  0.39330E-01  0.93512E+03   -0.21500E-01 -0.21500E-01  0.43000E-01  0.00000E+00  0.00000E+00  0.00000E+00   -0.46938E+03 -0.98339E+02  0.56772E+03 -0.46455E+02 -0.42833E+02 -0.10651E+03      298.00
  0.39786E-01  0.93915E+03   -0.21750E-01 -0.21750E-01  0.43500E-01  0.00000E+00  0.00000E+00  0.00000E+00   -0.47147E+03 -0.98468E+02  0.56994E+03 -0.46837E+02 -0.43995E+02 -0.10708E+03      298.00
  0.40241E-01  0.94006E+03   -0.22000E-01 -0.22000E-01  0.44000E-01  0.00000E+00  0.00000E+00  0.00000E+00   -0.47174E+03 -0.98872E+02  0.57061E+03 -0.47143E+02 -0.44353E+02 -0.10691E+03      298.00
  0.40696E-01  0.94395E+03   -0.22250E-01 -0.22250E-01  0.44500E-01  0.00000E+00  0.00000E+00  0.00000E+00   -0.47376E+03 -0.98992E+02  0.57275E+03 -0.47501E+02 -0.45516E+02 -0.10744E+03      298.00
  0.41151E-01  0.94483E+03   -0.22500E-01 -0.22500E-01  0.45000E-01  0.00000E+00  0.00000E+00  0.00000E+00   -0.47399E+03 -0.99404E+02  0.57340E+03 -0.47840E+02 -0.45874E+02 -0.10729E+03      298.00
  0.41606E-01  0.94839E+03   -0.22750E-01 -0.22750E-01  0.45500E-01  0.00000E+00  0.00000E+00  0.00000E+00   -0.47581E+03 -0.99574E+02  0.57539E+03 -0.48211E+02 -0.46940E+02 -0.10768E+03      298.00
  0.42061E-01  0.95065E+03   -0.23000E-01 -0.23000E-01  0.46000E-01  0.00000E+00  0.00000E+00  0.00000E+00   -0.47687E+03 -0.99833E+02  0.57670E+03 -0.48553E+02 -0.47701E+02 -0.10785E+03      298.00
  0.42516E-01  0.95288E+03   -0.23250E-01 -0.23250E-01  0.46500E-01  0.00000E+00  0.00000E+00  0.00000E+00   -0.47791E+03 -0.10009E+03  0.57800E+03 -0.48897E+02 -0.48463E+02 -0.10802E+03      298.00
  0.42971E-01  0.95383E+03   -0.23500E-01 -0.23500E-01  0.47000E-01  0.00000E+00  0.00000E+00  0.00000E+00   -0.47819E+03 -0.10045E+03  0.57864E+03 -0.49215E+02 -0.48906E+02 -0.10796E+03      298.00
  0.43426E-01  0.95725E+03   -0.23750E-01 -0.23750E-01  0.47500E-01  0.00000E+00  0.00000E+00  0.00000E+00   -0.47995E+03 -0.10060E+03  0.58054E+03 -0.49570E+02 -0.49997E+02 -0.10832E+03      298.00
  0.43881E-01  0.95814E+03   -0.24000E-01 -0.24000E-01  0.48000E-01  0.00000E+00  0.00000E+00  0.00000E+00   -0.48020E+03 -0.10095E+03  0.58115E+03 -0.49882E+02 -0.50444E+02 -0.10825E+03      298.00
